-11.4336
-14.327
-11.2663
-7.3966
-7.1902
-6.2858
-5.6559
-3.867
-2.6872
-3.3999
-4.9281
-5.1622
-5.0138
-3.521
-3.2966
-3.2978
-6.4385
-5.8098
-5.2945
-10.5421
-12.6322
-10.6456
-14.2016
-14.5862
-8.3248
-6.0455
-8.8792
-10.9678
-9.7292
-11.9117
-10.3541
-11.8831
-13.4871
-12.7634
-12.9433
-12.6719
-10.1843
-7.7652
-5.1134
-0.3915
-2.0298
-7.7354
-6.6832
-4.2993
-2.5537
-1.6618
-3.7903
-4.0001
-3.5148
-3.0237
-2.8148
0.5345
3.2732
-0.6506
-3.8865
-8.7273
-11.7951
-16.5787
-20.7268
-18.3026
-12.9651
-9.289
-7.7047
-7.6971
-6.6875
-5.172
-3.5822
0.4115
2.6389
4.209
8.5706
11.1464
6.8415
2.92
4.3979
6.9286
3.5499
-2.3772
-1.7887
3.0513
4.1842
2.8895
0.4728
2.4853
6.7646
9.7576
9.7879
7.4886
7.8453
8.6299
6.9494
6.5533
8.4045
8.6523
6.1667
5.2795
4.4253
4.4226
5.4811
2.5736
2.03
-1.6067
-6.613
-4.3757
0.2683
6.4649
8.0789
3.469
0.0415
-6.9403
-8.6327
-4.4131
1.9515
4.7781
4.6444
4.7264
2.603
0.3172
0.2935
0.012
1.5993
4.7867
3.004
-1.9093
-3.1988
-4.1025
-5.6953
-5.3196
-5.7584
-5.3938
-6.5596
-8.3539
-6.8967
-1.3229
1.2629
-1.6775
-2.1322
0.8637
1.053
-2.0321
-0.8178
2.5631
1.183
-1.1484
-2.9478
-5.9425
-11.0933
-12.5879
-9.4589
-5.5647
-2.1518
1.0136
2.337
1.3817
1.7136
-0.2577
1.4967
0.7012
-3.3325
-3.131
4.1696
10.7656
12.8923
17.1427
16.5212
7.876
2.7232
0.4465
-0.6796
-0.3498
4.5974
6.7378
7.9628
7.0583
5.2253
4.4156
0.348
-4.5659
-3.7942
-3.8993
-6.0782
-7.5244
-10.3425
-8.445
-7.6456
-6.268
-3.3961
-1.6718
-1.5399
-1.8898
-2.7618
-3.1223
-3.1801
2.0174
8.1072
4.9599
4.4939
8.3851
12.0635
10.3799
10.1659
17.3602
20.617
21.1812
17.2378
13.2977
9.8923
5.8066
0.7912
-4.0369
-8.3807
-9.335
-7.949
-8.5506
-13.4712
-15.3055
-16.4358
-10.7713
-3.8155
-5.6772
-9.5677
-8.1744
-5.9116
-4.0359
-5.1084
-2.6567
0.3503
2.4799
1.914
3.4051
4.4553
2.7424
1.738
-0.1404
-3.6759
-5.5602
-6.4529
-7.8984
-8.5715
-5.4861
-4.641
-4.2474
-0.0314
1.1931
0.4271
-0.6538
-2.1225
-4.6794
-2.2903
-1.2346
-0.6264
-2.1358
-4.3968
-3.402
-4.7145
-6.487
-7.1462
-9.1468
-14.0194
-16.8264
-17.1009
-18.8602
-23.648
-22.9544
-15.8057
-14.0507
-14.4135
-14.659
-16.0425
-17.7128
-12.1773
-4.8246
-3.8627
-2.9555
1.3267
-2.2164
-6.4898
-4.0241
0.2705
1.824
2.5192
4.9979
4.0372
7.73
15.4959
19.3672
19.8263
21.0933
24.4444
22.766
19.0649
18.5001
19.7589
20.5643
18.8881
13.7232
11.1107
13.4854
12.7187
10.6682
10.2284
8.9902
8.7141
5.1817
2.6904
-0.5779
-2.1224
-0.8366
2.7559
3.2403
1.3226
1.3633
1.6911
2.3686
4.7216
5.9197
5.666
5.9273
7.8267
7.3936
5.4748
7.9277
12.7235
15.7659
15.8361
13.6068
10.3323
6.8235
2.9295
-0.5185
1.0415
0.1439
-0.1979
4.5603
7.2771
9.8777
7.0361
4.737
3.8511
6.1459
9.7376
10.6695
10.7521
10.9603
8.0434
4.0106
0.1106
0.5608
2.2948
4.6897
7.3096
8.8919
7.516
4.4601
2.8544
0.4251
-4.7954
-8.0709
-7.1037
-4.5331
-4.862
-4.8918
-4.1942
-6.6892
-5.0213
0.4256
2.4555
3.1626
1.5278
-2.0639
-2.3302
0.0871
-1.0404
-3.5739
0.0357
-2.6017
-4.8947
-0.2816
4.4447
6.4619
8.9217
8.7672
9.0704
6.1536
4.3465
1.2823
3.2948
5.6598
2.8749
3.1997
4.9575
5.3775
6.2968
6.4212
1.8808
-1.529
0.8684
8.468
15.8147
21.4086
24.607
25.2619
24.1353
23.4013
16.7361
12.4812
16.0377
19.0948
16.6396
16.8451
18.1925
16.1797
8.6654
4.4336
6.7212
4.8445
1.0104
0.5064
1.2382
-0.5396
-1.9125
-5.0706
-7.4814
-3.0541
2.5693
1.2851
-1.5185
-2.1796
-4.5003
-8.7588
-8.7029
-4.6631
-0.6946
3.4705
3.9027
2.9632
4.7629
8.0388
11.3565
18.5051
20.2138
19.8495
17.7876
15.2738
14.8665
10.6937
6.4007
5.8482
8.38
9.8788
7.4539
7.7299
6.6978
6.5876
10.4908
12.5607
12.441
15.3066
16.0141
15.3019
16.4354
18.4267
18.5677
15.8111
15.6051
14.3577
14.0493
16.9317
16.1215
13.7693
9.7705
7.2224
5.3777
2.1453
4.9515
11.1157
19.3463
25.6465
29.1265
32.9742
36.9756
34.1967
31.2312
29.0416
22.2177
15.0552
14.5284
16.7335
18.2201
19.1337
19.4381
15.8938
11.3329
11.3087
15.4389
19.1635
17.3456
13.5081
10.7429
9.4177
9.4103
9.4591
7.643
3.2239
3.4818
5.4449
4.7073
1.1814
1.1627
-0.3282
-3.4754
-3.8887
-5.3749
-3.9039
0.2371
3.1441
-4.5634
-10.9883
-9.2701
-3.6751
4.8244
6.1431
3.5123
4.4895
7.2977
2.5017
-2.1053
-2.0428
-2.3288
-3.1525
-3.5126
-0.6387
1.0036
3.3406
8.2743
9.8536
8.4336
6.1312
2.8425
0.4175
2.2126
2.3542
-0.0141
-0.1782
-0.1006
2.1497
3.2011
-0.4285
-1.4274
-2.7916
-4.6785
-5.3647
-5.0479
-5.186
-2.6148
-0.8553
0.2156
-0.7114
-1.6048
-1.705
1.044
1.3457
2.5353
6.8075
10.4372
8.5342
6.7348
8.5326
9.0623
7.0513
1.0142
1.4301
1.3859
-1.9603
-0.2955
3.688
9.998
14.4127
17.806
20.4362
21.1538
19.4497
17.5824
19.1774
17.7795
14.724
11.879
13.9272
11.6936
8.286
7.4261
10.0242
15.2435
14.9263
10.6022
7.9285
6.9067
3.5723
3.0721
5.7933
7.0557
7.5142
11.4671
16.7517
14.415
11.2191
12.7988
13.2513
12.1351
9.314
8.6297
10.2346
13.3226
17.3478
19.8753
19.4854
18.168
21.2811
23.9072
21.7216
20.3322
22.5697
22.8695
18.7742
14.3536
12.6395
9.8471
6.3819
3.5569
0.9469
4.0543
2.1384
-3.8854
-5.518
-3.1488
-2.3492
-5.948
-6.5212
-7.0434
-7.8019
-7.2068
-7.5807
-4.411
-5.533
-10.5861
-15.5219
-17.0598
-15.7856
-16.2898
-17.9269
-20.1056
-19.9539
-18.0745
-18.2064
-17.9696
-12.5344
-8.8297
-6.9398
-5.6523
-5.6886
-7.0015
-8.1189
-10.5363
-11.5801
-8.3271
-3.8518
-5.0955
-12.0088
-12.9786
-9.7818
-6.6944
-5.0237
-7.8447
-11.3086
-9.1506
-9.4637
-7.4298
-4.0111
-4.4893
-6.6252
-9.5395
-11.3075
-10.3423
-6.1379
-4.8124
-5.0765
-2.4783
0.8545
3.3841
5.985
12.6988
15.8181
18.2732
21.7877
22.7265
24.5658
27.5345
26.3083
19.9482
17.7711
17.9457
22.9087
22.7519
20.384
20.5326
19.9754
18.2115
13.6827
12.2967
11.7326
6.0077
2.8303
4.8604
6.1556
3.3785
2.6899
-0.1284
-2.2059
-5.1883
-8.1509
-11.5314
-11.9363
-10.6014
-8.7172
-6.551
-4.6177
-4.5868
-4.4705
-3.1096
0.236
1.2625
1.5713
1.4921
3.7127
7.805
12.5022
12.1553
12.4122
12.7284
12.987
13.8015
13.2315
15.99
16.002
11.7098
6.5399
2.3189
0.1259
-2.0809
-1.5753
-4.0328
-6.6864
-4.4877
-6.8764
-8.6693
-11.4523
-13.8934
-15.8665
-16.257
-16.5245
-18.4614
-20.6404
-20.4143
-18.469
-16.1006
-15.6331
-16.1688
-14.2582
-10.3534
-6.1514
-1.213
-0.9331
-3.3597
-2.3399
-0.9881
-1.8955
-2.4491
-4.3978
-10.0775
-15.5164
-13.367
-5.1363
-2.1897
-4.4098
-2.4309
1.5318
5.1017
7.4883
4.5866
4.7409
6.2273
5.7304
7.5535
10.2866
9.1179
9.3529
11.6878
14.2985
13.6262
11.6376
9.767
9.358
7.2671
9.6091
11.4766
6.9278
1.4108
-2.4381
-2.6866
-0.3869
4.3984
8.3722
12.3757
16.9575
19.2101
16.6914
13.8592
14.6443
17.1943
17.157
14.0896
10.2493
3.749
0.2539
-1.6763
-4.3418
-5.0676
-2.0475
-0.3583
-1.723
3.0892
11.4903
9.0262
6.9901
8.497
7.9419
7.8963
9.6001
9.4593
9.5143
12.3741
13.6571
10.3885
9.347
10.1334
9.1132
10.8405
12.8349
11.7563
13.6615
15.1585
16.6874
15.1582
12.3448
10.0771
9.267
8.208
5.7333
5.7098
2.2565
-2.2919
-7.2045
-7.2261
-8.8013
-10.0306
-10.264
-8.3902
-10.3168
-9.5514
-4.5205
-0.4482
2.2901
3.5873
3.8022
0.0138
-5.5499
-8.5854
-7.7998
-8.7946
-8.3906
-2.7334
5.2981
7.2868
6.0513
5.004
1.6054
5.3308
10.5766
12.9456
11.7459
8.6915
5.4271
8.4067
11.78
11.6905
8.5022
5.6289
6.3791
6.3988
6.0864
3.7466
3.1478
3.0058
5.2347
10.6628
9.113
8.2033
10.4803
11.6841
12.1612
10.7265
10.8812
9.1455
5.7503
7.7612
11.4894
11.478
9.406
10.6018
11.1309
12.8344
10.8629
5.3455
4.3336
3.6203
-0.2335
-4.9742
-6.9151
-7.1716
-7.4188
-7.0082
-3.6404
-1.352
1.5696
8.4537
13.2727
14.0516
13.2285
13.6087
14.8133
15.366
15.0966
17.9897
19.9445
17.2635
14.9064
17.9232
24.0952
24.8598
20.0397
18.8914
18.2861
19.0659
18.2569
17.0207
19.3226
18.4485
16.5689
19.7577
21.1731
22.4482
18.7434
10.4301
4.3855
1.8148
2.9309
7.3806
7.4812
7.0544
9.3439
11.1017
9.5158
7.457
8.9226
9.8811
10.4393
13.2335
15.1881
14.9156
16.9965
16.6764
13.6317
11.3714
13.1152
11.7083
7.6853
8.0331
6.3346
3.8363
3.6122
9.3207
15.793
17.8643
16.6447
15.6424
16.0029
11.5525
8.9507
5.2101
2.8928
2.2968
-0.7987
0.0971
3.6279
5.8816
5.8278
0.9356
-2.5707
-3.2322
-2.0299
-4.1447
-7.6337
-11.1337
-13.6507
-15.7791
-15.2979
-13.1117
-10.4022
-9.1553
-4.0274
-0.8107
-3.2729
-2.1878
-0.4577
2.5332
1.4507
-0.7509
0.4741
2.4915
3.106
3.9131
7.2604
11.1701
10.5624
8.1169
8.4625
8.3943
5.2443
4.9641
5.972
2.8856
1.5921
0.2489
-0.4315
4.03
5.9603
4.4986
3.1228
4.3045
5.041
9.4063
15.3853
14.6571
9.8007
5.1519
1.4162
0.1928
-1.0364
-0.7798
-2.346
-3.9791
-0.7367
3.928
7.4795
8.9496
6.6664
4.2987
5.2841
6.8688
7.7558
8.0852
6.663
4.988
0.6075
-1.1129
-0.103
3.9397
9.1556
12.5025
15.7873
15.7271
11.2059
11.6684
14.7471
13.4034
13.1334
11.9896
9.7166
9.1346
9.2752
9.8545
8.5731
8.963
6.6005
6.5198
10.9389
14.4244
12.4327
9.6999
9.3511
11.8705
11.8726
8.9053
6.7696
3.3969
1.5999
4.0409
2.7764
-1.4698
-4.4527
-3.4009
-4.5047
-4.4479
-0.4819
2.365
3.0946
7.3628
9.3872
9.3146
11.9747
9.9719
6.9306
7.763
5.9113
0.6832
-5.2483
-4.8049
-2.1101
0.7865
1.8096
2.8306
3.0723
-0.5693
1.1181
2.0006
0.1307
-3.219
-6.0362
-7.4207
-10.1118
-11.4366
-10.4219
-9.6684
-5.5377
-2.8503
-1.3583
2.1297
7.7877
9.3767
8.6072
13.4494
17.4401
14.7926
11.9761
9.2768
4.5939
5.1007
5.7553
1.9975
1.146
0.5087
-0.8797
-6.7318
-11.6212
-16.4965
-16.1335
-11.5417
-8.7093
-4.7497
-0.3078
2.4125
3.2241
3.4538
4.5792
2.5094
2.8696
6.1067
6.5136
6.4534
2.7872
0.1619
1.0587
2.566
4.485
7.2741
5.1202
2.1277
-1.287
1.6825
6.865
6.9927
6.6122
6.7942
4.7456
5.2868
6.7307
12.1472
13.4261
9.896
6.1154
-1.8093
-5.3721
-7.1722
-9.7915
-13.69
-14.7307
-12.9201
-10.4794
-11.2173
-11.5557
-14.3459
-14.3834
-10.0047
-6.3845
-3.6004
0.0919
-0.7795
-5.9731
-8.375
-8.0478
-5.4502
-5.1305
-5.6071
-8.2409
-8.6123
-4.9785
-0.0294
3.5456
5.9905
9.4838
8.2181
5.6165
4.9157
4.3878
4.4788
5.8523
9.8462
9.9657
10.483
15.1615
15.4625
8.867
5.9104
6.4878
4.1011
0.3103
-1.9451
-4.1414
-5.5142
-3.9719
-3.9451
-7.776
-12.4153
-12.8686
-12.5467
-8.9767
-7.4771
-8.9078
-10.4509
-10.6148
-9.2391
-8.4975
-6.227
-0.7756
6.9951
7.384
4.619
4.9714
3.1739
-0.8629
-2.9612
-7.17
-13.1128
-16.0689
-10.1645
-5.8
0.2088
7.125
9.9891
7.7198
2.4491
-0.6482
-0.1224
2.2386
0.6808
-2.2498
-2.2292
-0.6692
4.2488
9.242
10.5691
8.9622
6.714
7.5234
8.4183
7.4921
7.4867
9.0155
8.2424
6.5466
7.4712
8.8377
6.4191
6.951
8.3098
6.134
1.3775
-0.4021
1.8273
1.2022
-0.4416
-1.63
-2.782
-1.5674
0.969
-2.4119
-7.9007
-8.8211
-10.8917
-10.9897
-11.6567
-10.7072
-11.3055
-10.5649
-12.1007
-10.75
-6.8227
-5.83
-5.1334
-0.222
5.5259
5.1654
7.3349
9.2826
8.3383
9.1813
10.2367
8.1917
7.2982
3.2521
-0.0343
-5.029
-6.7896
-4.5648
-3.6998
-2.5478
-1.3667
-0.1697
4.4461
5.2878
4.8544
7.7834
7.5745
3.7575
2.4156
2.4329
3.4963
3.1641
4.1784
2.2225
-2.3787
-5.2837
-3.3758
-1.0716
2.4271
3.9968
0.691
-1.7237
-5.9826
-10.4879
-8.0819
-5.2589
-7.1755
-8.8723
-8.4344
-4.3709
4.6153
7.5406
7.0136
7.553
5.0823
6.3956
11.6364
14.7695
12.8486
11.8435
14.465
14.8463
11.8319
12.4791
15.3823
15.3913
16.1602
12.2575
2.2944
-2.8204
-1.2493
0.8906
3.0091
3.0808
5.9193
9.5553
7.7377
6.4058
5.7649
2.3496
0.3561
-0.3661
-1.8052
-2.208
-2.2852
-3.5491
-5.3063
-6.3124
-4.8643
-4.3169
-5.6684
-5.0611
-4.6267
-7.7718
-10.1579
-12.9325
-12.13
-11.8092
-10.5374
-10.1526
-9.7167
-7.5047
-5.2827
-1.1652
3.3566
4.5889
2.9946
2.833
6.8671
14.3207
15.3626
14.7686
11.3919
6.7788
5.083
3.2194
1.9376
-0.3526
-2.2468
-0.5852
1.2764
1.007
0.933
3.2361
4.0143
-0.1082
-1.2465
1.5806
4.3957
6.5105
6.5988
6.3585
5.4734
6.2394
6.5254
9.1498
10.0225
6.0404
2.0658
3.5081
5.1566
5.9454
6.5637
5.121
1.3491
0.0589
-0.5018
-1.3744
-0.1985
-2.0026
-4.9927
-6.3866
-12.1048
-13.6691
-11.9273
-3.992
5.9279
8.4712
9.6992
8.2746
5.1371
6.1493
6.092
2.8782
4.9313
8.9777
9.11
9.7409
7.2061
2.9303
-1.7283
-4.332
-1.7996
0.5784
-1.1003
-7.4272
-13.2576
-17.7246
-19.2773
-14.9631
-11.3567
-7.7018
-5.1464
-2.7319
-2.3371
-1.6655
0.0832
1.102
2.9717
7.0875
6.8766
7.0949
9.6406
8.9057
6.15
3.1788
-3.7378
-7.327
-4.8573
-8.6052
-10.7137
-10.8432
-8.9732
-9.6704
-11.7561
-11.3658
-15.8353
-19.2356
-19.5747
-21.3214
-18.2296
-12.8725
-11.848
-12.6515
-9.2343
-5.1536
-3.4662
-2.6859
-3.3881
-4.7412
-5.0848
-4.3264
-5.354
-10.1303
-14.7058
-12.4393
-12.5167
-13.8288
-12.7947
-13.0625
-13.3356
-12.2041
-12.3531
-14.0435
-14.7708
-12.2723
-8.6378
-6.7233
-5.2527
-2.0916
-2.1182
0.3436
0.9219
-0.6942
-5.2496
-5.8899
-6.1047
-6.5606
-9.3439
-11.2044
-14.6826
-15.4177
-15.8539
-12.8501
-8.1201
-5.0531
-3.9
-3.8849
-6.426
-11.0307
-17.1752
-18.8615
-19.5009
-20.2013
-18.523
-15.7911
-12.6889
-8.0918
-3.4761
-3.2219
-2.9499
-4.0055
-2.9908
-3.4618
-10.6876
-13.4282
-13.5384
-11.4038
-8.3797
-4.9141
-3.912
-2.4646
-4.2373
-5.6607
-5.8444
-4.7659
-3.1033
-2.0037
-3.8606
-7.1651
-9.0565
-11.0204
-15.8275
-15.141
-13.0949
-10.2671
-6.819
-3.3614
-3.1938
-5.9138
-4.4228
-2.5589
-0.3295
-1.2341
-5.1026
-7.2372
-8.2599
-9.2448
-5.6685
-2.118
-1.603
-3.2561
-5.5237
-6.4931
-7.3016
-5.4746
0.88
0.4308
-7.1473
-10.2404
-13.063
-17.1309
-18.2595
-19.3704
-18.9775
-18.8248
-20.5113
-16.0415
-12.1912
-15.2554
-18.6958
-18.3372
-16.6006
-12.4131
-10.4706
-11.4233
-8.8148
-7.1215
-5.3374
-5.5774
-9.3482
-8.9901
-7.1896
-6.1812
-5.882
-5.7033
-4.6463
-1.1759
-4.8414
-7.1524
-1.8406
3.7375
8.7589
14.3338
17.1448
18.7294
17.2502
12.3485
7.4254
6.8268
9.82
9.6622
8.4115
9.1685
9.4226
10.0268
10.4169
4.5754
-0.2755
-4.2856
-2.6438
1.9075
3.2004
4.0373
1.1833
-0.1347
0.5655
1.5761
4.5258
7.2881
12.7062
16.3891
12.0785
8.2356
10.1444
12.309
12.1397
14.3973
18.3698
20.4201
20.2673
19.5817
19.5331
14.6662
10.656
7.8197
6.072
5.0382
4.6384
3.7686
4.3784
6.3341
9.9694
9.3299
8.7059
6.9468
2.638
0.1536
0.2142
4.0387
11.0822
14.5003
15.9446
18.4673
19.3148
15.5861
10.9053
10.5416
13.1553
17.0769
21.8877
23.3587
22.5816
18.1373
10.8429
7.7966
12.0402
14.4903
10.5897
4.5121
5.6226
9.8254
13.2542
15.893
12.2249
8.2288
7.4267
8.9459
7.5681
4.9733
1.368
0.2455
-1.9784
-0.3325
1.2184
3.5051
6.2419
9.6068
11.882
15.2156
12.6325
10.3295
7.7543
2.9365
1.8685
3.1246
2.7611
2.5781
2.6129
4.0432
4.234
6.7814
10.2003
9.7297
5.1959
-0.8499
-6.061
-4.6573
0.5699
1.8184
1.693
1.6409
-1.4506
-2.5775
-3.1385
-5.9967
-6.4254
-6.3807
-6.1439
-2.3444
1.664
0.6056
0.6367
0.6779
-4.8494
-11.5581
-10.2356
-7.7424
-8.1486
-9.5271
-5.5518
-3.5523
-3.6644
-4.8579
-6.1867
-7.1525
-8.4094
-7.5823
-5.7988
-5.8865
-5.646
-8.741
-12.9863
-12.2832
-9.6574
-7.7311
-3.9271
0.5686
2.8198
4.7069
5.1814
3.6305
2.5954
0.6405
-1.5432
-5.6085
-5.2516
-4.6079
-2.8643
-0.7469
-0.9957
0.2092
-2.9015
-7.964
-8.511
-6.082
-3.4293
-3.5595
-4.1605
-7.1915
-4.868
0.0962
-1.1387
-1.7965
0.9857
0.1427
-1.1978
-4.327
-9.7387
-10.2679
-3.2971
2.6004
2.0878
4.4203
2.9653
-3.5341
-8.5545
-9.1785
-10.3398
-12.2641
-12.1299
-16.47
-21.1864
-17.8627
-12.3869
-12.4064
-12.3314
-14.9088
-19.0026
-20.2717
-18.1887
-18.1378
-19.12
-19.4537
-16.2414
-13.8556
-9.9222
-2.6665
-0.7064
0.2502
0.6369
1.9994
3.9883
5.1115
6.7144
5.9061
3.1515
5.9973
8.6204
9.9846
9.3705
6.6289
6.7705
7.0529
7.6069
7.8762
9.1344
12.4594
13.2077
13.0243
11.5841
9.1362
6.9908
7.1163
7.1948
5.86
6.7963
8.911
9.2174
4.9717
3.0093
5.6972
7.4585
6.2197
9.3522
15.4913
14.6561
13.4401
8.0359
5.5963
6.8141
7.5774
8.6724
8.6183
15.0473
18.7426
16.9859
17.8685
20.0546
18.8268
18.8228
19.9707
21.2503
22.4766
20.0888
15.0019
9.2021
6.2626
8.7793
10.1065
10.7661
10.5505
11.1067
12.4971
14.3173
13.8319
11.6219
13.331
17.8616
20.0432
20.9988
19.5402
18.2496
20.7899
25.0165
23.0003
20.1157
20.3196
22.3223
22.5814
20.1338
18.9799
12.6649
8.339
6.0875
6.8082
7.7186
9.7857
10.5906
11.8806
10.6049
10.7452
10.9641
8.844
9.2479
8.9084
10.9078
9.6337
7.7028
10.3418
12.957
14.2677
14.5943
14.5003
18.0474
20.0731
18.6719
16.9558
13.8448
13.3253
14.6122
17.1807
14.0239
7.8418
5.9907
8.7397
8.1169
5.1826
1.8233
2.0907
1.2725
3.0956
6.3381
8.6786
6.4868
3.4551
-0.1743
-8.402
-12.8948
-10.2055
-5.1881
-5.1693
-6.377
-4.2739
0.3835
5.4072
4.7611
2.2422
5.4828
13.0044
14.7768
14.495
18.361
20.2788
21.481
19.7716
17.985
11.0164
4.9283
3.7275
3.6047
5.0871
7.6699
9.8064
8.8571
3.9741
2.306
5.2937
5.1384
4.2649
4.244
4.0681
1.1277
-3.8926
-5.5511
-6.6083
-7.6368
-5.5792
-0.5987
3.5998
8.0583
10.2686
6.3222
4.5963
4.573
5.1283
2.9676
-4.8131
-14.0215
-18.1079
-16.6859
-13.5294
-11.1113
-9.5621
-4.5901
0.5458
5.6526
9.5828
9.9587
5.9777
3.8394
4.3755
7.7077
10.521
11.4123
10.7063
10.6241
10.7505
10.8014
6.5161
2.4109
2.0507
2.8051
1.7182
-0.8611
-1.8152
0.5215
4.799
1.6122
0.395
-0.072
1.1382
-1.0394
-2.9021
-1.9026
-3.9766
-6.862
-7.1119
-8.1362
-8.4477
-10.1931
-10.1358
-7.5218
-6.4095
-6.268
-0.7315
3.4183
6.082
5.6594
8.2423
10.6318
8.9174
9.4383
12.1316
10.3354
5.4459
4.7424
4.1046
4.5534
4.3036
4.6955
5.9591
8.8881
8.8181
7.2175
5.0481
4.0553
2.6704
0.7297
1.344
1.7745
-0.8507
-5.1678
-5.316
-2.6149
-3.6348
-6.0506
-7.1639
-7.2428
-7.2451
-9.7339
-14.4127
-11.7234
-5.1103
-4.8489
-6.3934
-7.7158
-10.7768
-9.1285
-7.0254
-4.7947
-3.839
-4.6974
-7.4123
-7.3038
-3.7127
-1.6838
-2.2259
-0.9271
-3.0101
-2.5471
-5.3693
-9.3634
-9.8787
-9.5152
-10.5049
-10.909
-9.4579
-4.7756
-4.5425
-6.3355
-4.1574
-1.3318
-0.0099
0.0657
0.1325
-1.374
-2.6618
-2.0487
-0.6702
1.826
3.6564
3.3742
3.5589
2.0772
-0.1289
-0.1355
-1.1074
-3.6983
-7.2659
-9.201
-10.0072
-13.5128
-16.8314
-13.5672
-7.1093
-7.0669
-11.0937
-13.1854
-15.4283
-18.3003
-20.6584
-22.0143
-18.4954
-13.0498
-7.8542
-0.7343
3.1565
0.3004
-2.4203
-0.0566
0.8649
-4.853
-9.7736
-7.2954
-4.4004
0.4493
2.2693
2.0587
-0.8536
-2.3857
1.407
3.15
2.7312
2.6214
2.1361
-1.4665
-7.4625
-7.8934
-4.5585
-0.6832
5.2432
8.5324
9.9186
6.5529
0.7343
-0.0181
2.2695
3.207
-0.1996
-6.5997
-7.1527
-3.2615
-0.0241
1.0556
-1.3776
-0.5902
3.2768
5.0335
6.2386
12.2006
8.9225
0.0381
-1.2072
-1.2767
-3.4033
-4.7446
-2.7958
-4.0521
-2.9762
2.9802
4.3322
0.5055
-3.9714
-4.4776
-0.1739
3.9162
4.9121
3.5405
-1.1866
-3.4612
-3.486
-4.6796
-5.6384
-7.3096
-10.7879
-9.3951
-4.1362
0.1963
2.0317
-0.8042
-5.6483
-3.9291
0.3932
1.8569
-5.5095
-11.1994
-13.4224
-16.3289
-15.9946
-19.3605
-21.7114
-18.3426
-15.9358
-16.7163
-17.682
-13.7685
-9.1749
-9.1064
-8.3261
-5.3688
-5.5082
-5.5702
-5.6152
-4.9384
-6.6479
-6.5899
-5.6131
-4.7465
-6.9066
-7.9674
-8.801
-11.0959
-8.7304
-6.3991
-3.5884
-0.2907
0.0536
0.8247
1.1517
2.1494
2.2412
-0.4922
-3.1212
-4.3615
0.4712
0.8492
0.3456
0.2081
-2.4591
-6.7838
-7.0691
-2.5869
1.8351
-0.6095
-5.5116
-6.8048
-6.6402
-3.3268
-1.3228
-2.6411
-2.7901
-3.399
-4.3069
-0.856
2.8093
0.2875
0.8773
-0.5657
-1.455
0.9907
2.9819
1.7412
2.6754
4.4527
2.6484
2.9193
4.8959
5.5286
4.6851
3.9249
4.2941
3.6362
4.0283
3.5016
3.9667
4.4702
5.3553
2.7495
2.7036
8.0415
9.4781
8.8796
9.0573
5.1289
2.3402
1.9105
1.8619
-1.7342
-0.4061
2.143
-0.9531
-2.5796
-5.4384
-5.891
-1.0186
3.4107
4.2461
6.6956
3.2921
2.0454
3.8918
7.239
10.6288
8.3264
6.0127
1.8273
-1.6058
-3.0962
-7.2415
-9.7638
-8.7569
-8.5138
-8.9003
-10.8281
-11.1308
-5.0091
-2.2491
1.4992
6.065
5.1873
2.1902
4.2016
7.4295
9.475
9.1214
4.1194
0.1395
0.4941
-0.3504
-6.5187
-7.6664
-4.8715
-10.2153
-11.4239
-8.2171
-4.7395
0.9399
6.9591
6.47
6.954
4.1139
4.7729
6.9601
4.8054
2.2195
-4.5463
-7.0494
-3.87
-4.6615
-5.9102
-7.49
-8.8971
-5.0939
-0.4112
2.9606
2.9997
-4.8065
-12.8753
-15.7257
-15.751
-15.5731
-13.0701
-5.9696
2.7767
5.7451
2.9424
0.3572
-0.2273
1.2359
0.4753
-3.0557
-2.6084
-2.0621
-4.8354
-8.3279
-6.8988
-2.7056
-2.2673
-3.6502
-3.7343
-4.9456
-9.3312
-10.6278
-11.9391
-14.5152
-12.0131
-5.7202
-5.8045
-9.5727
-9.2192
-6.1903
-4.6481
-3.8111
-1.0556
-0.575
1.6744
1.21
-2.4027
-0.9263
-3.2492
-3.22
0.8008
3.869
7.3356
10.6276
12.8693
14.6601
12.0039
8.2476
1.9574
-0.4599
0.5675
0.9015
-2.1592
-6.759
-8.0886
-12.2214
-15.1065
-12.8458
-12.711
-13.1534
-13.7297
-9.6643
-4.9339
0.1563
4.7912
-2.5899
-12.711
-13.8864
-7.9076
-3.2338
-3.2857
0.8354
7.429
6.8333
5.7953
9.4822
14.1224
12.6071
9.7964
11.6262
13.5157
11.2523
10.2341
9.5821
6.507
5.7887
4.3677
4.2971
6.8111
8.5122
12.2091
10.9758
9.2804
7.6845
8.3477
10.7679
12.5509
14.5809
13.4967
11.334
10.7437
9.744
5.9236
-2.7083
-8.9024
-13.1655
-15.8896
-14.5614
-10.9299
-6.8494
-2.9586
0.7374
3.3761
4.1674
5.0457
7.0674
14.6666
18.2508
16.483
12.737
7.8842
8.341
4.7441
2.9443
5.3849
3.8304
2.7511
6.5926
7.5506
6.5721
3.9431
5.2577
6.8837
5.3526
2.9345
1.4339
0.743
1.4835
1.9875
1.6147
-0.9492
-6.3601
-9.4373
-8.7354
-5.5607
-5.0724
-9.4294
-11.1555
-9.6893
-6.8969
-4.8667
-4.5257
-6.6201
-7.3093
-6.7568
-6.2656
-6.0096
-4.6351
-2.2631
-1.5393
-2.4841
-1.0874
-2.5871
-2.7055
-1.1364
-0.4615
-0.2028
-0.5504
-0.9059
-0.5271
-3.8701
-8.3249
-11.8646
-11.4407
-9.0937
-5.3452
-1.3469
-0.8117
-1.0314
2.9556
8.0592
6.4704
5.1428
8.4002
9.4523
7.2968
4.0227
1.3764
-1.4814
-5.8208
-6.5635
-3.5469
-2.3288
-2.6037
-4.9908
-6.5997
-9.0344
-10.4072
-9.0579
-7.4306
-8.1736
-11.2886
-16.9609
-15.7762
-12.6146
-12.0482
-9.7308
-8.3861
-7.1478
-6.3155
-3.4777
-5.1408
-7.731
-6.3298
-4.4606
-3.3873
-4.3975
-5.2875
-4.3271
0.3709
3.2168
6.3862
8.4205
8.0261
4.0577
3.3688
4.7876
5.1238
8.4024
8.825
9.3667
10.5919
7.1801
9.3157
12.4009
12.962
14.3955
13.275
9.4062
7.2864
9.8176
12.1271
15.3492
13.4495
12.1088
8.504
4.2912
-0.5812
-4.4591
-1.6536
3.2801
4.3208
2.0923
2.3365
2.1374
2.3149
2.4474
2.4176
1.8038
-1.9089
-5.1895
-1.4526
-4.6237
-10.0394
-13.5666
-14.6023
-16.162
-16.8213
-14.5554
-12.5218
-13.8169
-13.8428
-13.3958
-8.3041
-2.2575
-1.123
2.7478
4.5575
3.279
0.7151
-1.6496
-1.1004
-0.4809
-3.2727
-3.5147
-5.1673
-6.2249
-6.9275
-6.8767
-5.9606
-6.7504
-9.8675
-10.8369
-7.4142
-4.4974
-3.1947
-2.9703
-2.0373
0.583
3.3344
3.6589
3.2915
5.1148
5.6066
11.0413
11.9854
7.7348
8.6078
9.4292
7.621
3.5556
2.6139
2.7687
2.2529
0.4279
-0.3518
-0.1821
-0.4848
-1.711
-1.6166
0.0024
3.86
-0.5832
-7.9893
-11.4255
-12.6112
-12.2922
-12.7731
-15.0986
-15.8352
-13.8602
-12.1205
-8.6196
-11.4415
-11.1482
-8.5846
-4.9993
0.5998
3.5138
0.9229
-0.7167
-0.1493
-2.2943
-1.1816
0.2153
0.6504
-0.0597
-4.2534
-7.2521
-10.4815
-9.8412
-7.2515
-5.7096
-6.3321
-5.7632
-7.8893
-6.8444
-4.5066
-9.463
-9.4522
-8.5092
-9.2941
-7.9321
-6.9032
-7.9096
-7.6623
-5.2251
-3.5715
-3.7337
-7.1847
-8.0848
-6.9265
-6.0152
-5.7962
-5.6849
-4.7183
-5.3757
-2.8616
-1.7927
-2.9299
-3.8983
-2.5915
-2.2677
-1.5867
1.6363
4.828
6.2763
8.5258
10.218
9.1719
10.531
10.8241
8.1309
3.54
2.8074
0.2674
-3.5602
-3.8599
-2.8814
-4.5952
-4.3373
-2.2531
-2.9674
-4.6424
-6.4393
-7.2564
-12.7703
-15.8778
-16.0818
-15.4648
-14.3214
-15.0313
-20.3337
-19.4562
-9.6921
-2.3017
-1.8048
-1.6592
-2.1692
-1.6975
-0.2012
-1.8221
-1.4369
-1.0161
2.5984
3.884
2.9906
1.8096
2.1382
4.4326
6.5136
4.4378
4.0828
3.6955
2.0075
1.8623
-0.0369
-1.8625
-0.3993
1.1064
0.5738
-1.8298
-3.7715
-3.9927
-5.261
-7.6419
-6.7521
-1.9529
0.8868
0.806
-1.3053
-1.9676
-2.9815
-4.8877
-1.5389
3.7045
3.7141
2.212
-1.3112
-4.5843
-2.8694
0.2942
1.1512
1.7862
2.7046
3.0744
4.6545
6.5618
5.8857
4.6864
5.8038
7.3076
5.7738
7.578
7.9888
6.2889
4.0587
1.988
2.9874
7.5559
3.4928
-2.6993
-5.3754
-5.4201
-7.8132
-9.272
-12.057
-16.1562
-12.9209
-11.7128
-8.5467
-5.195
-7.378
-12.4803
-15.0739
-13.2355
-15.6188
-14.4247
-12.5573
-9.2195
-2.4208
0.9348
3.179
3.3056
4.0767
2.1704
0.304
1.9072
2.3035
0.019
-4.1053
-0.1078
3.7616
5.2844
7.1208
9.1199
7.5714
1.8109
2.3019
4.0255
2.6935
-1.9494
-2.6585
0.7123
3.945
0.2711
-4.8688
-9.1987
-11.7495
-8.8766
-6.2419
-4.7393
-7.2002
-9.1508
-10.1515
-11.7138
-10.3033
-9.0852
-11.0011
-10.2346
-9.3769
-5.1956
-1.971
-1.2998
0.3475
3.5213
3.6019
2.1128
0.1223
-1.2101
-3.4994
-6.9279
-6.1934
-6.5227
-5.5662
0.1159
0.7852
-0.0468
-0.7664
-3.5032
-5.1897
-2.836
0.8492
2.7418
4.974
4.144
5.7779
6.8619
3.6467
2.5723
-0.0815
-5.3677
-8.405
-9.2171
-8.6169
-5.9905
-3.9843
-7.6856
-14.9625
-20.6608
-18.6847
-18.1167
-22.0806
-20.7532
-16.487
-11.0689
-9.8116
-8.6155
-8.9949
-10.4543
-15.0773
-19.0551
-18.6889
-18.39
-15.7892
-16.2567
-19.2386
-17.9198
-14.6194
-10.2248
-9.3543
-9.4545
-5.9413
-1.2788
-13.105
-14.3012
-18.5353
-19.4055
-17.4625
-16.6967
-15.5951
-16.0818
-18.6046
-19.1028
-18.602
-19.0222
-18.3385
-21.4608
-24.7904
-21.7432
-18.3886
-16.1069
-12.7442
-10.3302
-10.339
-10.2421
-7.6068
-2.4804
1.706
1.5153
-1.9744
-0.1945
5.3888
8.8803
5.992
4.0285
2.6782
2.5155
3.164
1.7168
-0.5745
1.1463
4.4313
3.696
2.3382
-1.0965
-3.4367
-7.2525
-7.8685
-10.8143
-16.0117
-20.1418
-25.0205
-24.4736
-19.2916
-24.3852
-27.9598
-27.9299
-26.4722
-21.6941
-15.6447
-10.173
-7.8598
-7.4814
-6.1674
-4.2635
-0.6973
-0.4229
-0.7313
-2.7369
-2.2331
-2.6765
-6.5044
-4.1712
-0.11
0.4562
-0.8397
-1.8746
-3.0794
-0.8107
0.7853
-3.3356
-9.0583
-10.8445
-9.3309
-10.3703
-10.5124
-11.9645
-14.1267
-16.3044
-17.6825
-18.7987
-18.7697
-19.6154
-19.5952
-11.1593
-5.8604
-4.8029
-5.7561
-7.5083
-7.0012
-10.3986
-14.4304
-14.9193
-18.5177
-18.8632
-20.5122
-22.2839
-22.452
-23.0244
-20.6112
-18.5055
-18.8352
-17.2553
-15.0752
-13.9309
-7.6967
-2.262
-1.2381
-1.3975
-2.7508
-4.7063
-4.7668
2.0152
5.211
4.155
7.8351
8.2592
6.349
4.8177
6.0539
7.6126
9.5307
10.7476
8.1183
8.6256
6.3749
0.9568
-2.5911
-8.1245
-10.3154
-10.7417
-12.3034
-16.5043
-20.5509
-22.2739
-24.6545
-24.8928
-26.6233
-27.1556
-27.9587
-26.862
-29.1066
-30.6926
-28.991
-30.5254
-30.2586
-24.2379
-20.0559
-17.8955
-15.3279
-10.4269
-8.4175
-2.3631
4.9376
7.6235
2.9378
-2.4601
1.0261
4.5871
3.672
3.6934
3.643
3.9848
2.7177
1.7448
1.5163
4.0745
4.22
0.476
-0.1461
3.3747
3.4117
1.1241
0.0696
-0.903
-0.1843
-0.1755
-3.4544
-7.536
-10.6007
-9.5468
-9.471
-9.7819
-9.6271
-9.6028
-11.4287
-10.9423
-5.4827
-2.9508
0.0829
2.721
3.3921
4.491
4.841
6.1455
7.0425
7.031
8.6466
12.027
13.1292
13.3849
11.0533
6.7428
1.1548
1.773
3.6778
3.5903
5.981
1.9896
-1.0442
-4.8461
-5.1961
-3.0588
-4.4419
-4.9866
-2.2388
-0.5402
-0.1211
-1.3408
-0.8099
-5.0359
-12.5176
-15.4472
-17.9016
-17.9847
-16.0384
-12.3265
-11.2078
-11.1861
-9.536
-7.1516
-6.6904
-6.7913
-4.7604
-3.5032
-2.8351
1.972
4.7083
3.2398
3.6536
7.1301
5.6
1.3783
-0.4985
-0.4544
1.7815
6.2235
11.7853
14.4512
12.7849
8.7292
7.9063
7.2901
4.9735
0.3392
-2.174
-5.6767
-7.4662
-9.391
-7.4094
-7.7256
-10.8468
-9.0141
-12.3834
-16.2234
-16.3999
-17.6037
-17.7931
-14.6498
-12.437
-9.7006
-5.8457
-1.7777
2.6897
4.7446
2.6368
-0.7894
-1.2643
-0.4199
0.3973
-1.4285
-3.773
-3.5214
-4.026
-1.4774
1.7075
0.4025
-2.9273
-8.5961
-10.2744
-11.203
-6.8498
-2.8964
-3.2664
-2.8499
-4.9143
-12.1463
-12.1799
-8.7892
-7.532
-9.4443
-14.7756
-19.0242
-17.9755
-16.9438
-16.4671
-15.2809
-17.7213
-16.8586
-12.2763
-9.2316
-9.5379
-8.5616
-6.1319
-4.6533
-3.868
0.0454
3.3657
4.1049
6.0813
8.6102
8.2862
8.3998
10.6486
9.1732
8.4826
7.8985
2.8946
-2.0975
-3.7196
-2.1588
-0.9015
-1.5476
0.5769
2.2624
-0.1734
-0.0857
-1.8909
-1.5302
-2.2862
-4.7487
-4.4309
-2.8924
-4.255
-0.4769
3.744
1.631
1.5373
4.3232
2.3646
5.0159
7.9855
5.375
3.2566
2.2838
5.8636
7.2635
8.1434
11.8077
17.8739
17.5765
11.9124
10.9529
11.9431
8.6303
5.568
5.4833
0.5088
-5.2138
-4.5159
-3.5315
-6.8584
-8.2707
-6.3406
-7.3915
-6.9659
-3.5074
-1.0242
-0.9383
-2.2258
-2.1638
-0.5307
0.9732
-0.1196
-0.9204
-0.8927
-1.2002
0.9318
3.4753
0.7151
-1.0174
-2.0636
-4.2262
-3.7938
-4.8907
-7.6235
-8.071
-3.0523
-3.0179
0.2903
3.9282
3.1279
3.9296
3.9939
3.5292
3.4793
0.9965
-0.0485
0.5915
3.9907
5.7528
-1.8263
-9.6652
-9.5192
-8.5554
-9.0627
-7.7494
-6.6716
-8.1318
-8.6399
-6.339
-2.9711
-1.2219
-1.2633
-0.8534
-0.5074
-2.0993
-2.8656
-1.3531
-1.1996
-1.4078
1.7212
3.1358
4.6402
3.1591
3.3728
4.8348
3.7136
0.0473
-1.1038
0.2105
-1.4628
-3.7294
-6.2879
-9.7001
-8.4012
-3.5045
-8.7187
-15.047
-11.819
-11.4735
-12.6865
-14.3852
-15.2122
-16.3374
-19.1677
-15.9142
-15.9803
-18.8243
-22.6259
-23.0721
-23.0916
-19.8347
-16.7083
-14.2802
-9.8038
-6.0955
-3.7779
-5.1252
-6.8085
-7.6868
-9.9249
-9.2678
-7.3409
-4.5138
1.6729
5.2805
10.7322
15.5899
13.6545
15.2177
14.4064
14.4117
14.7725
14.0372
14.7438
18.2086
19.9299
14.934
8.4428
4.7096
2.3503
1.2441
0.9832
-0.083
-2.8363
-0.0097
-0.7936
-7.3305
-5.1324
-3.5657
-5.1622
-6.5646
-6.3722
-7.8246
-10.5224
-8.3473
-6.219
-6.9789
-6.4199
-3.7942
-3.362
-5.2157
-5.271
0.7677
10.1795
14.6203
12.2189
11.187
13.1454
15.1055
17.457
15.0504
16.1133
14.773
13.2706
12.8129
15.3487
20.3864
17.8798
13.2036
11.9244
10.6997
7.5721
9.0506
9.9445
8.8235
9.4308
11.9975
13.6699
12.8699
11.274
15.8457
16.7583
10.6618
5.4812
3.6716
2.6509
3.0304
2.5686
1.8361
-1.9784
-2.1741
0.2058
-1.7925
-2.1842
2.2649
3.6563
4.734
7.6385
10.9379
11.3029
12.5873
12.9286
9.159
5.2072
4.4767
2.2812
3.193
4.5766
3.3465
6.2155
5.3649
5.877
6.8263
6.727
6.7875
6.3427
3.6968
3.8155
7.983
8.9609
6.8439
1.2267
-0.031
-0.5437
-1.3325
-1.4443
-0.5083
3.4705
5.2617
2.0512
-1.6884
-4.2598
-5.098
-3.6766
-4.1769
-6.8323
-11.4786
-14.9182
-12.7622
-6.8917
-5.585
-8.7047
-8.7576
-3.9239
2.4836
4.0164
2.2252
5.5758
9.9352
11.9951
11.4797
9.13
2.4543
-0.46
0.571
1.7708
4.6326
9.0158
16.3647
19.9292
20.1378
18.7319
13.7108
12.8912
14.413
13.0155
10.5294
7.5332
5.5806
-0.0858
-0.0744
1.7046
1.5969
-3.9832
-7.5899
-5.4122
-1.4519
0.501
2.9186
6.9845
9.2977
6.2581
3.0553
1.199
0.5531
2.4727
-0.4955
2.3903
11.2702
13.4959
9.3593
8.0943
9.7215
7.7336
4.9957
4.5162
2.9274
3.3942
1.9182
-3.3071
-1.8118
1.4077
2.3349
4.0684
5.7281
3.5707
0.7803
-7.5394
-11.4403
-6.1621
-0.4856
3.7123
0.8942
-0.7264
0.0792
-4.2427
-5.6403
-4.8484
-13.6461
-18.809
-11.5879
-8.9572
-9.1896
-7.1326
-5.3597
-4.8353
-0.9115
5.0206
5.1995
0.3828
-0.6161
1.3995
6.9357
7.2926
6.967
8.6291
10.0133
10.1489
9.7193
3.9012
-3.4656
-0.2459
8.4436
10.1475
11.5552
13.3003
12.5631
12.5563
11.3593
9.742
12.5041
13.7309
11.9757
15.8259
17.9104
16.8641
14.0221
8.5545
4.1947
0.7585
-1.144
-2.7337
-3.7148
-1.9761
0.8898
1.9011
2.4405
1.347
1.2742
2.5169
-0.2014
-4.5048
-4.9133
-6.1862
-6.2813
-1.7192
-1.5513
-3.7075
-7.0591
-13.8792
-16.7086
-16.4168
-12.9804
-9.3408
-11.6886
-14.946
-16.6455
-17.817
-20.4814
-19.8729
-17.8522
-18.4873
-20.7583
-22.5449
-21.8406
-19.6152
-19.684
-19.1491
-20.6318
-21.3889
-18.3468
-16.4068
-13.5184
-11.8546
-12.7467
-14.0388
-12.9806
-8.4094
-9.2119
-13.9277
-12.2231
-8.2758
-6.1628
-4.0646
-4.5766
-7.1009
-4.9102
-1.9962
-3.3858
-1.6837
-1.4579
-3.7236
-5.8785
-9.3963
-15.1896
-15.1339
-13.6447
-16.3687
-19.1663
-20.4352
-17.4295
-14.4678
-13.8881
-12.8178
-11.4047
-8.5547
-9.2253
-13.5083
-9.5985
-4.541
-1.4085
2.6372
8.7796
15.3167
19.7027
19.3199
18.4573
17.0645
14.6712
12.66
15.3899
17.2562
20.6045
21.3235
16.7612
16.6415
17.5356
13.2152
10.6606
10.6509
9.5117
12.3488
13.484
11.4772
9.1562
6.071
5.1394
3.3914
4.8775
4.4521
-2.1615
-5.9981
-6.5692
-5.2699
-5.1001
-8.865
-14.2363
-17.01
-11.8492
-11.1298
-12.6753
-11.651
-7.9141
-4.5019
-3.1506
-3.773
-2.9095
-0.929
-0.3686
-0.9797
-0.8488
1.4766
4.553
3.4694
2.2193
0.2213
-3.5626
-4.8678
-3.8018
-2.2472
-2.4814
-2.0982
-1.1543
-0.2071
-0.1415
-0.3089
0.5242
0.6297
0.0916
-0.4948
-3.4379
-4.6949
-6.2966
-8.3785
-10.7665
-10.9753
-8.4163
-10.7272
-12.8607
-9.7887
-9.7253
-13.4041
-15.4751
-12.7652
-8.8084
-4.7878
-0.0607
0.1071
0.6762
-2.9859
-1.2207
6.4041
7.1445
8.496
13.5492
15.7485
18.5894
15.6652
12.9057
15.5066
17.4376
14.871
11.7929
9.3191
7.6086
7.094
9.4152
14.0116
14.8897
14.4319
13.9519
13.5189
10.214
7.5833
8.8368
9.833
3.2214
0.0653
1.7417
4.7395
5.6727
3.2201
-2.6988
-8.3849
-8.7388
-10.1693
-6.4527
-1.0955
-0.7733
-3.8731
-3.3357
-1.2234
-1.3256
0.712
0.9139
1.3447
0.8578
-0.4928
2.5101
4.1432
3.3562
-0.1038
-3.6183
-4.1752
-5.0497
-8.2532
-9.0335
-8.2683
-2.9486
1.4891
0.0121
-3.4254
-5.5148
-7.2945
-12.0668
-16.5503
-19.5808
-19.0399
-15.124
-13.6935
-10.0252
-9.3662
-7.3242
-6.8013
-6.829
-4.4823
-3.6409
-1.884
0.468
2.0357
-0.3442
-3.9
-5.4224
-4.6209
-1.7331
3.2946
8.1015
8.3074
6.2348
5.6948
8.6305
11.5343
12.163
7.4061
2.5889
6.1252
8.5809
3.4519
3.7845
5.7653
5.1527
5.4314
7.984
6.2972
5.4626
4.416
1.6938
2.0309
3.5376
3.1098
1.1387
-0.374
1.3505
2.3397
-2.0049
-6.4177
-7.2016
-10.7667
-11.0899
-10.272
-11.7794
-9.9567
-7.5768
-6.7956
-5.0684
-1.03
1.019
-1.3378
-1.7834
-1.505
-3.1744
-6.8736
-12.2936
-13.9623
-15.1883
-13.1961
-11.9717
-8.1836
-4.1237
-0.6621
2.7502
4.4071
1.8234
1.2035
2.7659
7.274
4.982
1.01
-0.7709
0.4964
6.3908
9.0652
7.6144
6.0042
9.1396
13.1379
13.089
15.5164
16.5753
19.8473
22.0081
22.2162
23.6146
22.8127
23.5064
22.4013
19.6748
17.5921
11.1807
3.3203
-4.9975
-7.7575
-4.4562
-1.6408
1.3805
-1.2824
-1.8008
1.5428
5.0952
11.5893
14.6506
13.4547
11.3235
14.5968
17.8442
21.5312
22.4718
18.122
14.5845
13.592
12.2787
4.7882
-0.69
-3.7422
-0.8794
3.1549
4.7725
3.4343
4.8874
8.625
10.639
13.3284
11.98
8.47
9.8362
8.3347
6.2096
5.3396
7.7468
8.1092
7.6923
8.8913
11.0805
10.1659
8.0741
8.1167
9.7284
11.2543
10.2847
11.041
10.6932
6.8348
4.1982
-0.4645
-2.9483
-2.48
-5.9214
-9.6712
-10.9182
-10.1459
-7.6552
-5.5056
-2.5688
0.4969
3.8604
4.5868
4.5947
7.7219
10.5536
12.3281
14.0936
12.1899
12.5256
15.3351
17.2079
16.9332
16.7383
22.0658
26.6276
26.8493
22.3603
18.883
18.1469
17.3891
16.3684
18.4758
21.2763
21.0891
18.8333
14.8149
12.2362
13.0102
13.4053
11.6743
10.0418
10.896
13.3393
12.7885
14.0569
15.4515
15.3418
13.1001
13.0154
15.8557
13.2685
14.2004
16.177
15.6263
13.4138
13.4458
16.3992
19.418
21.1041
19.9274
17.5115
16.259
15.2866
10.0437
7.1269
8.9993
9.1775
7.3186
4.9499
4.6061
1.5271
-1.845
-1.1483
5.6686
9.2066
8.075
4.9685
1.9397
-2.8659
-2.3447
0.6456
3.9743
7.3384
9.2862
8.2209
7.9894
5.4453
-0.8444
-3.4095
-3.0097
-5.5528
-6.1969
-1.6584
3.6599
7.2675
10.742
15.2054
18.29
20.0769
22.4063
19.275
13.6154
12.6104
17.6827
19.4869
16.5391
13.0886
9.4811
8.9484
6.0228
5.265
4.9459
2.4019
-4.7836
-9.7953
-7.2193
-5.506
-12.2382
-13.2245
-12.3222
-8.1929
-5.2034
-5.0031
-4.9105
-3.1313
-1.1083
2.0319
3.4146
4.7066
6.558
9.1022
14.1552
16.8104
16.2633
13.9806
12.0779
11.505
11.3291
13.335
15.303
17.1704
17.3283
15.0335
11.7662
6.9811
3.6123
1.478
-0.8191
-1.7876
-1.5919
-1.0982
-0.2315
-0.5856
-2.0577
-4.5949
-2.6753
-2.2156
-4.7112
-6.7341
-9.7781
-11.5382
-12.6358
-14.3387
-11.8639
-3.9587
1.0592
3.5383
6.2751
7.2536
8.5607
11.9333
12.4247
13.8767
14.5489
12.7461
14.2824
13.7014
12.3386
11.917
7.7213
4.5135
1.0175
-1.8797
-3.3872
-1.5058
-1.5504
1.1549
7.418
4.6858
2.8649
3.3809
4.6941
7.7104
8.6719
7.2503
2.8463
-0.8324
-1.9905
-0.9414
-0.7119
-4.1086
-5.065
-2.864
-3.1539
-2.7858
-2.1567
-0.0538
0.1808
-0.1824
-0.6425
-3.5003
-2.1034
0.2642
-1.4431
-1.3691
-3.9882
-5.2359
-3.3564
-3.9213
-5.6599
-7.2329
-9.9314
-11.0813
-11.2351
-10.5043
-9.8177
-11.1097
-10.3898
-3.6211
-1.6966
-3.8656
-3.8259
0.2951
2.0883
1.3003
-0.4898
1.4489
1.412
1.9943
1.8958
0.5392
2.8811
7.6034
9.9689
10.9136
9.9154
9.3786
9.2582
7.7795
6.1142
5.5524
4.2228
3.1842
0.6518
-1.6964
-7.0806
-9.4796
-7.86
-4.3932
-1.77
1.767
-0.2318
-3.3361
-4.13
-6.8706
-7.1498
-7.4025
-12.8519
-16.3678
-16.4529
-16.7104
-15.1576
-15.2219
-14.7657
-13.1733
-12.9574
-10.3018
-8.2704
-9.0608
-9.4956
-6.3983
0.7704
4.9063
4.7856
5.618
3.8521
3.1339
3.9247
7.866
10.0639
9.3302
8.2915
7.3179
7.2678
5.2668
-0.8012
-4.011
-5.178
-5.3505
-2.4143
-3.0194
-3.8707
-4.4006
-1.8225
0.0955
-0.9293
-0.5475
2.2222
2.776
-1.9336
-3.5722
-3.0214
-3.623
-4.1894
-6.598
-4.5132
-1.6002
0.6257
4.0182
4.2338
5.7719
4.5407
-0.4116
0.8563
2.1288
0.68
-1.7897
-2.0285
-1.2975
-4.1786
-2.9559
2.3682
6.0592
8.1872
5.4014
3.2619
0.5708
-0.5345
0.8681
2.4441
2.6353
2.0442
-1.4735
-3.7861
-2.9573
-6.8415
-9.7411
-9.7958
-5.9761
-2.2307
0.413
0.4108
-1.0965
-5.0574
-4.9262
-5.2304
-5.5344
-2.2815
-0.1017
1.0636
3.31
4.8642
6.2348
5.9689
0.9311
-6.2255
-9.1357
-9.0788
-8.4615
-5.1948
-3.2898
-1.0304
4.0333
4.9491
7.3155
9.0253
9.3122
6.3351
1.4594
2.804
4.4076
3.7934
5.07
2.8918
-3.0072
-5.2586
-2.3436
-0.4887
-1.5289
0.8525
2.5121
2.3316
6.9752
10.0277
4.3151
-0.6832
-4.3595
-4.2343
-1.7299
-2.0064
-2.0635
-0.8679
0.4151
-0.627
-0.2676
-1.1083
-3.6856
-1.6747
1.3844
2.7784
4.6231
1.1519
3.4674
6.5277
10.8678
14.9671
17.4342
17.8562
19.4821
20.5295
15.4632
10.7835
10.744
9.0616
4.5197
0.2587
-0.9404
0.2175
1.2757
-1.2288
-3.7987
-3.618
0.0494
3.0707
1.1171
0.5804
5.363
9.1609
8.8715
6.0767
1.7296
-1.2954
-0.8877
0.8679
0.8991
1.2552
-1.021
-2.5429
0.3351
0.0353
-3.1096
-3.4673
-5.2011
-3.99
6.4653
7.3759
5.0685
9.7734
10.6472
3.5878
-4.9314
-9.782
-13.2449
-16.4992
-12.8872
-10.8002
-6.3049
-2.2985
2.2064
7.0439
9.0149
11.5305
9.5734
6.4269
4.8395
3.3219
8.133
15.0976
12.9708
7.7853
3.0539
-1.3203
-0.9379
4.1083
4.3936
2.1188
-1.0118
-2.1225
3.9186
4.7153
-0.3714
-3.8747
-1.3422
-3.8639
-6.6033
-6.7144
-5.4821
-8.4812
-9.1755
-5.6708
-0.4561
-3.9608
-9.1595
-9.9091
-10.3682
-9.7302
-5.2646
-3.9784
-5.9275
-8.2017
-4.3276
3.1596
3.6269
-1.152
0.8861
-0.2517
-7.9247
-10.0506
-12.1266
-13.9962
-12.1724
-6.8776
-3.4614
-3.0514
-2.4552
0.1412
1.2109
-1.6099
-2.7994
-4.0665
-3.1519
-2.0388
-8.0302
-5.8155
0.9393
4.3519
5.9326
4.5544
3.5116
4.7284
-0.8569
-1.0231
0.2586
-2.3894
-5.3964
-3.9561
-0.7253
-2.5273
-13.255
-27.0421
-38.1027
-43.4337
-37.6939
-28.566
-20.9769
-14.755
-11.6964
-13.769
-20.4235
-25.2
-22.9324
-20.6442
-19.6568
-16.8595
-12.0574
-5.9187
-5.8092
-12.7277
-16.2464
-17.3956
-13.7086
-8.2829
-11.3667
-15.3532
-17.3632
-17.9955
-18.2895
-15.9647
-7.9038
-9.2558
-9.2525
-5.0975
-6.4697
-12.948
-13.6162
-11.1549
-12.2605
-11.1242
-9.7207
-11.3437
-16.4619
-20.8075
-18.4751
-13.1268
-7.6309
-6.4729
-4.5885
-3.5378
-5.0616
-3.3401
-6.2586
-9.4653
-8.9135
-7.9664
-5.5185
-1.9351
-3.3423
-4.7744
-6.585
-7.5495
-6.8426
-7.3892
-11.1733
-20.8492
-26.9701
-28.8637
-28.2506
-22.7136
-15.979
-13.9735
-15.0811
-17.9485
-17.8617
-15.4151
-10.3063
-6.9432
-8.3277
-7.9151
-8.5816
-5.192
0.238
3.1807
6.4449
5.3449
7.4234
9.3684
8.6097
6.3876
5.7678
5.0373
2.4091
3.4611
1.4818
0.7107
-0.225
-3.3293
-2.4105
1.5783
4.0942
2.5586
-0.8854
1.5186
8.9425
10.9477
9.1722
8.5978
8.8666
9.3984
4.6062
1.5534
-0.9459
-1.6024
0.7901
2.3712
3.9958
4.1103
2.3874
-1.106
-3.1234
-3.6557
-5.0361
-9.1335
-7.4788
-2.961
1.8588
0.9334
-2.429
-4.3213
-7.0988
-10.6359
-10.0719
-5.9536
-7.167
-7.6912
-7.2514
-10.6092
-12.5126
-13.3597
-14.9404
-13.5037
-10.8991
-10.6393
-10.9159
-12.9718
-15.9134
-15.6655
-15.9422
-17.6081
-19.336
-21.2779
-20.9729
-20.2754
-19.5894
-20.619
-18.7848
-18.0259
-13.9765
-7.7521
-8.7534
-12.46
-11.1783
-14.9274
-19.0144
-18.3841
-20.0696
-19.5068
-18.0019
-17.0205
-18.5117
-19.0969
-19.5894
-21.6706
-24.1957
-24.0892
-21.9264
-20.3752
-18.3759
-16.1729
-19.5176
-21.0358
-21.2888
-19.3722
-23.3646
-25.6195
-26.3728
-27.6509
-28.0072
-28.0938
-30.3238
-32.4331
-33.8816
-32.8166
-26.3976
-26.4886
-27.164
-24.9632
-22.6966
-19.1496
-14.6764
-12.5882
-14.0644
-12.6945
-9.9057
-11.2596
-14.1115
-12.9165
-9.7825
-14.5193
-16.0718
-13.7063
-11.8926
-12.4987
-14.6285
-19.0679
-19.6019
-18.4913
-20.1448
-19.3424
-17.4194
-16.6917
-18.0717
-18.9193
-23.8656
-27.9884
-29.0509
-28.6834
-29.3487
-28.1484
-24.8946
-23.0342
-20.9449
-20.0667
-25.011
-25.6461
-28.7951
-33.5345
-33.2899
-28.7745
-27.4785
-26.8368
-26.7012
-24.7734
-22.5354
-21.9572
-21.1325
-19.5077
-15.704
-14.6727
-16.7087
-26.6022
-30.8526
-29.2181
-26.6002
-23.1024
-22.9574
-23.9035
-25.5547
-27.0838
-28.5949
-31.3092
-33.027
-33.9528
-36.4919
-38.6184
-36.2071
-34.9497
-34.541
-36.5986
-39.9657
-35.2741
-31.5832
-33.1867
-34.5109
-33.1993
-33.4361
-32.8008
-32.2437
-29.9962
-26.6166
-24.143
-24.8244
-24.0005
-25.0614
-27.6555
-30.0205
-30.2251
-26.9884
-27.54
-27.0293
-27.5687
-27.9271
-21.5875
-20.3227
-26.5872
-29.8964
-29.1089
-31.2021
-35.8944
-36.4942
-37.9836
-36.8575
-36.6321
-38.7435
-34.6586
-25.9757
-23.1772
-23.2172
-23.4593
-25.3103
-28.8219
-30.0655
-30.97
-29.3693
-29.4573
-28.0286
-25.7749
-25.0705
-22.0208
-24.0838
-22.5282
-19.5504
-20.7934
-23.1317
-24.7265
-28.5037
-34.6482
-36.0924
-34.9594
-34.7509
-37.6268
-37.3542
-37.7371
-37.4501
-38.4707
-41.6231
-40.5834
-42.4661
-44.9943
-44.6812
-41.2554
-42.1854
-44.9962
-46.2057
-45.3533
-41.7838
-36.0827
-33.661
-33.765
-32.2388
-33.6954
-33.2474
-30.9304
-26.5045
-24.8359
-24.5298
-26.9925
-30.6902
-29.3291
-25.6064
-24.1947
-24.4751
-24.1846
-22.1334
-19.7468
-19.4459
-25.8741
-33.6742
-34.2404
-30.8778
-29.0102
-36.2386
-40.185
-38.4778
-35.7854
-32.8466
-31.3897
-31.3749
-33.4527
-35.6557
-34.4188
-33.1699
-26.2784
-20.0934
-19.3865
-20.8223
-21.2568
-23.9656
-26.2702
-24.0472
-23.6136
-26.9418
-28.7836
-27.3604
-23.5499
-21.7988
-21.0718
-17.2755
-13.4771
-13.935
-17.0433
-16.8923
-15.5854
-18.581
-21.7774
-18.8575
-19.6708
-21.4324
-21.317
-24.3025
-25.8426
-26.5903
-30.176
-31.9851
-30.2608
-31.1448
-32.3484
-31.0908
-32.2357
-34.6344
-35.8092
-37.3723
-34.1467
-30.4533
-30.5524
-33.9074
-31.9303
-27.8043
-24.7655
-27.6577
-27.9883
-27.9967
-29.0286
-29.7004
-31.6106
-32.2512
-34.1936
-35.7327
-35.5145
-35.4564
-36.0987
-36.8139
-39.5219
-37.7582
-36.5485
-36.1231
-35.8322
-36.5587
-38.8298
-42.4605
-47.6893
-46.2109
-43.1587
-41.7803
-44.1081
-44.8311
-45.9071
-46.6522
-49.7716
-48.7528
-45.816
-44.6111
-45.9913
-41.5128
-38.364
-37.5695
-38.504
-35.792
-35.5152
-37.6094
-38.9138
-42.1452
-44.1967
-45.1001
-48.2898
-51.3298
-52.0739
-53.3451
-50.4949
-46.5165
-46.3395
-46.3032
-44.4135
-43.139
-42.9379
-41.3014
-37.1976
-31.4326
-27.7307
-28.1738
-27.9829
-28.1196
-28.2685
-27.6891
-30.1514
-28.8676
-29.021
-28.6756
-25.8138
-23.0121
-23.793
-25.6143
-23.4754
-22.8377
-30.5583
-35.5451
-36.0565
-36.2428
-38.4495
-35.825
-33.2338
-37.4492
-40.3705
-40.2627
-41.8184
-44.4188
-44.925
-42.1487
-41.2239
-43.9115
-39.6504
-37.9198
-36.368
-36.5551
-39.2171
-37.779
-34.6387
-35.2728
-37.5961
-40.6291
-42.1776
-43.8344
-42.9903
-42.4664
-44.3287
-45.3789
-48.0835
-51.5197
-51.0684
-46.8461
-41.9485
-43.9761
-45.7204
-43.4903
-39.5355
-38.2327
-35.5101
-32.8388
-30.5268
-25.0367
-21.4711
-21.3829
-20.0184
-18.2137
-16.7162
-21.4522
-22.6455
-22.8293
-24.6239
-26.9627
-29.1145
-27.6631
-31.5366
-36.9513
-39.0945
-37.2773
-36.4665
-34.4645
-34.4501
-33.2917
-28.5446
-26.3013
-23.6446
-23.5871
-28.3442
-29.6163
-27.0622
-27.4812
-26.4389
-23.1442
-25.8849
-29.8322
-34.2715
-36.6819
-36.9426
-35.7429
-34.9861
-31.152
-32.4231
-32.021
-30.7486
-32.5201
-32.9926
-30.4596
-28.7778
-34.7932
-36.1368
-36.0862
-36.2723
-34.7101
-32.299
-30.2732
-31.9751
-33.1041
-32.9687
-31.5118
-30.712
-29.6312
-31.7139
-30.4803
-32.9092
-37.0438
-35.8013
-33.1601
-33.8672
-34.7031
-32.1639
-29.3696
-32.1315
-33.5251
-34.5458
-33.7363
-34.5039
-33.5905
-32.3851
-33.3189
-32.8378
-29.4805
-28.4745
-29.733
-31.2665
-31.98
-31.6302
-36.6415
-44.7045
-46.8898
-49.7223
-52.4917
-50.9011
-45.4467
-42.9805
-43.8993
-46.6994
-46.9135
-50.0922
-52.3979
-52.7354
-48.3053
-46.611
-45.6339
-43.7633
-46.0482
-49.4469
-48.4984
-46.1313
-46.9637
-48.9442
-49.5689
-49.6821
-48.7232
-50.7863
-52.6582
-48.4414
-43.3464
-39.3996
-38.5866
-37.937
-33.8254
-31.8794
-32.4248
-32.1827
-35.129
-35.1726
-34.0809
-27.7241
-24.4905
-20.6473
-15.8181
-13.7525
-16.0172
-23.1504
-25.3822
-28.0653
-31.3377
-31.8674
-27.7274
-25.7109
-24.285
-17.3495
-13.6675
-14.8471
-17.2225
-21.6769
-25.2819
-25.2642
-23.9692
-26.0198
-31.5834
-36.9488
-36.8302
-36.7131
-36.8706
-37.0573
-39.5237
-42.8669
-42.6519
-39.1136
-34.3449
-32.303
-33.9524
-36.5737
-35.5449
-32.3451
-28.757
-28.8769
-25.2484
-24.9834
-28.4516
-25.5401
-22.9402
-24.6787
-27.8447
-30.0305
-30.3857
-30.6559
-34.6256
-36.7429
-35.6777
-34.6433
-34.9031
-38.258
-37.9462
-36.9621
-36.7717
-32.4103
-26.4215
-24.4847
-22.9833
-19.5382
-19.36
-19.0797
-18.3442
-20.2766
-22.086
-22.3535
-21.8906
-22.0153
-20.3277
-23.0472
-21.1974
-14.7569
-11.065
-16.3874
-22.4494
-23.8595
-24.8135
-28.3332
-30.5345
-27.3025
-26.3329
-23.5218
-19.8297
-21.4428
-22.7542
-20.726
-22.9828
-23.4817
-26.0968
-31.0305
-30.1812
-31.031
-31.4984
-29.8586
-27.133
-26.6221
-30.5319
-30.6837
-30.0121
-28.3013
-25.3593
-26.7684
-30.317
-30.2137
-28.4761
-34.1481
-36.7383
-35.8711
-32.3722
-25.9805
-25.9791
-28.0928
-25.5648
-25.6253
-29.9131
-32.6208
-32.8393
-31.484
-29.2909
-28.6169
-29.0684
-25.9628
-25.0603
-20.6933
-20.1504
-21.0781
-20.205
-18.5301
-14.5059
-14.424
-17.441
-22.9849
-26.8258
-28.2686
-29.7187
-30.3087
-32.2047
-32.1289
-33.4826
-35.8319
-39.5846
-39.4345
-38.1939
-37.7009
-38.5763
-36.4187
-28.5035
-26.4889
-25.5814
-21.4746
-15.0149
-13.4308
-15.5667
-17.601
-20.3063
-23.0767
-22.2901
-20.2799
-19.768
-21.3582
-20.576
-17.7546
-15.882
-12.3222
-9.427
-9.266
-7.7323
-5.4493
-3.3681
-6.325
-10.5306
-13.2375
-11.8805
-8.9419
-9.0563
-12.6514
-17.1194
-19.7886
-21.3779
-22.2723
-23.7899
-24.2326
-26.5923
-30.5345
-32.6629
-32.826
-31.0948
-28.6128
-26.7924
-21.8941
-21.3719
-24.5942
-27.7052
-29.8842
-29.8448
-27.7613
-28.8499
-30.324
-27.5284
-24.2002
-25.9693
-29.3352
-31.0202
-28.5509
-28.5721
-27.2704
-26.0691
-22.5487
-20.8447
-25.1368
-24.6906
-22.8132
-25.7583
-30.6978
-34.5136
-32.9308
-31.8096
-29.1496
-22.1127
-19.5074
-23.9148
-27.3734
-29.6425
-29.498
-27.2493
-25.4279
-25.4888
-21.3605
-17.6842
-16.308
-17.6965
-19.2338
-20.387
-18.9327
-22.9501
-27.8164
-28.6336
-30.7157
-30.4536
-29.6324
-30.5381
-31.3005
-30.3287
-33.0086
-34.0151
-31.9322
-29.1748
-24.838
-22.786
-19.5714
-17.5584
-16.5198
-17.6592
-19.2251
-16.9993
-17.0257
-18.7653
-18.8471
-19.1391
-18.0647
-18.1144
-19.0297
-20.7834
-24.1639
-25.1633
-24.6493
-25.188
-27.6881
-27.8361
-25.9781
-28.7791
-31.1501
-29.4473
-29.1818
-32.0216
-31.9337
-32.2669
-31.1187
-27.6077
-26.9153
-27.0575
-27.6041
-26.8903
-22.8345
-19.476
-20.3676
-20.003
-21.4046
-23.8248
-23.9213
-22.7018
-21.0873
-19.6095
-16.2787
-14.3605
-16.5476
-17.9866
-15.847
-14.188
-14.45
-15.682
-17.4839
-15.4516
-14.0741
-12.3442
-18.6341
-25.9917
-25.999
-21.6573
-19.2868
-19.0881
-19.9711
-18.7202
-16.4954
-18.7021
-16.2148
-12.4748
-7.2886
-8.5664
-10.97
-12.3661
-17.6245
-16.9537
-10.8039
-8.4245
-8.2859
-8.8913
-10.3198
-12.6042
-13.6417
-10.7055
-9.075
-9.9602
-10.0539
-7.0841
-6.0492
-6.2483
-7.2545
-2.8022
-2.4275
-9.2137
-12.1073
-10.3903
-9.9145
-13.701
-15.4723
-15.917
-18.7461
-17.8315
-16.9118
-16.7326
-18.4571
-20.0674
-19.9155
-19.18
-16.4208
-14.4278
-13.8464
-14.4988
-13.2498
-12.1318
-12.0419
-10.3518
-7.0948
-9.3614
-7.0815
-1.6155
1.6728
2.3128
2.2981
1.9543
-1.4833
-3.7466
-4.8385
-0.6328
1.5489
0.269
0.4557
-2.4192
-7.8618
-4.6805
-1.9438
-7.029
-8.006
-9.2355
-9.2604
-7.954
-6.9846
-8.9725
-14.1232
-15.9919
-18.6062
-16.8003
-11.5077
-11.5018
-11.712
-9.3238
-10.3223
-14.302
-18.5834
-19.1639
-15.5369
-15.1657
-14.1648
-11.4078
-10.9039
-13.7454
-16.6878
-16.876
-15.1828
-11.245
-10.4127
-9.0634
-8.7889
-8.3477
-7.4429
-7.2427
-6.0214
-7.2466
-7.1974
-5.0014
-3.4781
-5.079
-3.0732
-1.5827
-2.4424
-2.7731
-5.433
-1.7568
2.5141
4.8532
5.1438
3.0516
6.3072
9.7123
13.6805
17.2655
13.7055
8.1104
8.0804
5.0922
1.2289
2.4826
2.2115
0.5826
0.509
-4.6188
-6.3572
-5.7729
-3.1873
-2.7442
-4.4864
-5.0922
-9.2051
-15.1261
-18.5108
-17.9509
-17.1762
-17.1626
-18.1939
-22.477
-24.8667
-24.839
-24.3983
-21.3064
-19.9118
-20.7873
-21.7719
-22.3119
-21.0125
-16.8846
-12.2641
-9.9057
-6.3183
-4.0536
-8.417
-10.7799
-10.6425
-12.1635
-10.5035
-10.8882
-8.0035
-4.0468
-4.5037
-4.7013
-5.196
-7.0818
-7.597
-9.1592
-11.99
-9.7349
-5.3333
-3.8413
-7.1318
-6.3698
-5.7086
-6.4815
-5.1059
-5.1345
-5.31
-6.6813
-10.932
-12.4148
-16.3979
-19.2136
-17.4931
-14.1855
-13.9115
-8.3051
-6.6987
-9.9874
-10.3586
-10.2339
-9.7057
-13.5811
-16.0108
-13.2346
-11.2861
-8.9069
-4.4431
-2.0584
-0.4161
-1.1808
-0.7428
1.3833
0.1947
-3.6474
-4.2201
-3.7038
-0.8555
-0.841
-2.3092
-4.2269
-5.0704
-4.0281
-3.6856
-8.1543
-9.155
-9.3318
-11.2733
-13.2144
-14.3428
-13.5856
-16.0211
-14.7429
-15.6607
-16.732
-16.4643
-14.1161
-13.6694
-15.4461
-15.8444
-13.1808
-14.1315
-14.086
-15.2476
-16.7129
-16.1408
-15.8394
-15.4174
-13.8622
-14.708
-16.8629
-14.7106
-13.6799
-13.915
-13.2463
-7.9699
-7.5481
-5.4054
-1.1621
1.0599
2.3448
-0.6504
0.69
3.4006
1.283
2.343
3.7201
-0.5092
-3.5748
-6.4626
-8.2267
-9.9955
-7.8151
-5.0593
-6.8891
-11.6172
-12.6532
-14.0696
-16.8915
-16.7415
-11.1017
-6.6975
-5.6924
-6.1101
-5.3589
-6.876
-7.9214
-3.9892
-4.7701
-6.8075
-4.1908
-2.1759
0.521
-0.73
-2.6193
-2.2476
-1.9734
3.0536
4.3134
-0.9914
-6.271
-8.3019
-8.1857
-7.429
-8.9753
-11.8983
-11.0796
-10.1603
-12.0811
-7.3084
-1.2048
-2.2564
-5.2767
-6.3092
-5.5983
-4.9682
-5.0914
-9.5066
-11.9561
-11.5642
-13.3054
-15.0427
-14.371
-13.4828
-16.4662
-17.0004
-20.1614
-22.4843
-21.5023
-21.7788
-21.6459
-16.2141
-13.0971
-12.6941
-13.9009
-11.6418
-12.7302
-12.3555
-6.0395
-4.3331
-1.7435
3.795
9.2451
10.6697
8.2964
4.8596
5.1704
5.6056
2.8252
-0.2482
-0.924
1.9427
4.6257
4.8884
5.5477
3.8902
4.262
5.8876
6.0627
4.9908
3.0337
3.8522
2.1286
-0.9552
-4.8395
-9.7554
-8.4583
-3.7911
-2.8451
-0.4441
-0.6452
-3.0172
-6.3745
-4.6443
-2.5773
-4.0786
-3.7573
-3.4516
-4.5558
-2.8893
-1.0788
-2.218
-5.4624
-5.9357
-7.7695
-12.8035
-16.7148
-17.7949
-15.3676
-12.615
-9.331
-7.2045
-6.896
-4.7033
-1.8837
-1.7143
-2.748
-0.9609
-2.2225
-4.8126
-8.3466
-17.1113
-19.0049
-15.5858
-18.0267
-18.0852
-16.4453
-15.8979
-18.7868
-4.1207
-3.6465
-1.5167
-0.2874
-0.7692
-2.786
-5.0313
-3.7277
-1.9109
-0.7555
2.0283
3.4681
5.7547
7.4831
7.389
5.7318
5.4495
7.6741
8.2007
8.0965
7.4003
5.7452
5.204
5.3072
3.5397
2.8865
2.3301
0.2024
-1.241
1.1509
1.8235
2.9668
5.6211
7.5431
8.3943
8.9312
8.2955
7.257
6.7824
6.3222
1.8765
-0.5965
-2.8642
-3.9505
-7.6963
-9.3496
-7.556
-7.9796
-9.4015
-7.4275
-4.3287
-2.0736
-1.5911
-1.1266
0.7312
1.706
1.881
-1.8414
-5.477
-5.2872
-3.0223
0.6844
2.297
1.2418
4.1633
7.8172
6.7434
7.9442
8.8768
10.2727
12.5805
14.2619
14.9516
15.6926
16.281
16.7983
16.4713
14.0322
11.1762
10.7812
9.5113
8.1509
7.7484
6.1794
4.6253
5.3804
5.9779
9.4416
10.1247
8.4184
4.549
5.0066
6.0012
3.294
-1.7888
-2.8078
-3.2213
-3.5115
-5.2028
-5.7424
-5.5219
-6.5331
-5.7786
-4.6182
-1.9033
1.3764
-0.8156
-0.0736
2.9969
3.3981
1.2275
0.4548
3.2773
1.8181
-2.2176
-2.5133
-0.8666
0.147
2.7794
3.689
4.2343
3.7876
2.3178
2.8859
1.6364
1.706
0.1152
0.5196
1.7639
4.0408
5.0662
1.8601
-2.6249
-2.7004
-1.9999
-0.2303
1.4505
0.9367
-1.4446
-1.2963
0.8859
1.7315
1.8167
0.7984
0.874
3.2818
3.7897
1.6752
-0.4763
-0.7698
2.4981
3.2062
4.0417
5.6622
5.1326
4.4929
3.7032
4.3046
2.7481
1.4294
-3.0417
-4.3622
-0.2768
1.8387
4.0316
6.7065
3.9735
-1.3143
-1.878
-2.131
-3.2963
-3.8161
-1.573
2.2491
5.6032
7.515
9.6822
13.7761
14.1476
11.4975
10.4733
11.7537
8.3673
10.0817
10.2791
9.6984
9.2428
6.8955
2.4123
1.5
0.6434
-0.5345
-0.8699
-3.4492
-4.0199
-3.9625
-3.3549
-1.5568
-1.0963
-2.2407
-3.7939
-4.1071
-3.4095
-2.6437
-1.4676
1.5783
2.424
-0.7745
-3.6406
-8.5975
-10.3156
-11.1763
-11.8375
-10.6295
-10.2292
-9.6993
-8.9282
-8.078
-6.6172
-4.0398
-3.9762
-5.2508
-5.1302
-2.1065
-0.9955
0.166
1.4324
0.6245
-0.3236
-1.3325
-0.8639
-0.1844
-1.9031
-3.1277
-0.5844
1.3685
1.5581
2.7292
6.9088
7.1952
4.5818
6.3711
9.7711
13.0788
12.1519
12.5618
10.8353
7.0623
3.5156
2.6921
4.1853
5.7835
5.1033
4.4504
8.0905
9.8175
6.5403
3.2432
3.4035
0.5733
1.1896
1.8271
0.1319
-2.3681
-1.648
-3.7427
-5.9752
-1.8823
0.8263
1.758
-1.1548
-7.2357
-11.9653
-9.2888
-6.2128
-6.5644
-6.8855
-7.9491
-8.8764
-6.3145
-3.7672
-2.6191
-3.0984
-3.4884
-3.3076
1.28
3.9043
1.6006
1.6029
4.8714
8.576
10.2498
10.2588
10.525
12.8274
17.4077
22.0808
23.3372
20.5373
18.111
17.8564
17.8843
15.4216
15.2178
17.8929
15.3398
14.4181
14.4528
15.7406
15.8703
15.452
12.8434
8.8526
9.1363
9.2475
9.2554
13.9011
18.7993
19.3441
14.307
10.4742
10.6164
12.1455
15.8349
17.4288
14.0197
13.0194
13.5176
9.881
6.5458
7.71
7.1587
5.6109
4.1209
3.7981
3.568
4.2527
4.9984
5.6951
7.9248
9.3724
10.1166
13.0382
12.1572
12.3626
11.873
13.4616
12.3703
9.8337
11.9765
9.9066
8.8257
8.1573
9.1826
10.1908
7.9785
7.5804
7.8255
8.8039
9.3769
8.7446
6.1682
6.2001
7.0696
8.6273
7.8738
5.5515
4.3195
3.5608
3.8612
1.3268
0.6581
4.2339
4.4264
5.1757
6.0193
8.1732
10.2775
7.2408
4.7229
1.1274
-2.9731
-5.4044
-4.718
-3.8112
-3.2823
-0.9445
0.9008
4.0028
6.0832
4.8636
3.3667
6.0807
8.7027
7.5897
3.7816
0.3794
1.1231
1.7533
0.3576
-1.744
-4.3528
-5.1348
-4.4381
-3.1369
-2.8367
-2.9837
-1.3493
0.2553
0.9983
0.2724
0.0699
0.3649
0.8086
-0.3294
2.2698
6.8328
6.7155
6.7478
6.2086
5.8241
4.8344
3.6602
5.391
9.7758
11.3009
10.6402
10.5988
10.2194
7.4903
2.4658
-1.6151
0.7378
3.3879
1.0576
-2.7137
-5.662
-6.468
-5.2092
-3.9143
-4.7019
-3.0317
-4.2462
-3.9422
-4.6554
-4.5997
-4.8982
-5.0732
-5.438
-5.1418
-5.1768
-4.1604
-4.4936
-4.6662
-0.999
1.8715
-2.8546
-3.9252
-2.469
-3.3848
-1.156
2.0718
2.5097
3.8031
4.3208
1.0409
-0.5985
3.1321
3.7033
3.0134
0.5552
-2.9609
-5.5374
-6.8822
-6.2806
-3.8358
-3.5118
-4.7507
-4.5367
-4.0991
-4.4734
-6.5169
-8.4585
-8.3345
-5.1449
-5.5812
-3.713
-1.6329
-3.5101
-4.3107
-3.638
-1.6319
2.5709
4.2057
2.3499
-0.6072
-1.833
1.0824
2.1558
-0.1468
-1.3095
1.5873
2.4428
1.6074
2.5328
2.5667
0.8453
-0.4471
-1.4179
-0.7163
0.9107
-0.8028
0.539
4.7451
7.1508
7.3149
9.1509
10.5028
8.7364
7.3907
3.8887
1.2491
2.7594
3.4044
1.0884
0.2666
-0.461
-0.3552
-0.8405
1.7611
5.9124
7.029
6.8582
8.4804
8.7469
6.0359
2.1641
2.4735
4.3501
4.5087
2.1959
0.7479
-1.1346
0.5391
4.2253
4.4722
1.0324
-0.7999
-0.5306
-0.0817
-2.2967
-3.0651
-2.4053
-3.6154
-5.1616
-7.4764
-5.6726
-5.9082
-10.2729
-9.3983
-7.4989
-7.6646
-6.3391
-5.9816
-5.7896
-7.2823
-7.1808
-5.2089
-2.8691
-2.8043
-3.775
-2.2047
-2.8555
-3.05
-2.4914
-2.3741
-0.4687
1.3137
-1.3999
-4.0764
-7.3904
-5.8287
-0.7768
0.8461
-0.8436
-3.7683
-5.3742
-2.5466
-0.2155
2.5821
3.3427
4.5584
5.2683
4.7359
5.493
8.3722
10.0813
10.4237
10.4013
10.8183
12.1409
12.2102
13.6674
12.4449
12.5965
15.3348
15.0896
14.036
14.7552
15.3021
16.7798
16.5429
14.6027
13.3751
14.8801
16.1269
16.5823
18.8178
16.3198
12.668
9.9991
9.154
11.2269
15.2251
14.3467
12.1002
11.9946
12.9742
12.993
9.3183
8.049
10.4081
13.7667
14.1191
12.2034
12.872
10.6312
8.745
10.0844
7.2276
3.3989
3.4707
3.0739
3.9068
5.568
6.8447
6.72
5.1123
4.5031
3.472
3.3726
2.2839
2.4317
2.7462
1.7044
2.2363
3.3905
3.0205
0.5045
1.1518
-0.8478
-4.3893
-1.7174
3.6094
3.6466
2.9473
0.4864
-0.9685
1.8152
2.5501
2.1609
5.0672
6.9239
4.032
2.5513
3.2876
3.0066
2.3091
4.6129
6.0445
7.8521
7.6519
5.4807
2.3043
-0.1697
1.2888
3.1134
6.1148
10.4879
6.3705
4.5623
6.8215
8.6558
10.1604
10.6533
9.1087
8.7577
10.0321
12.7256
11.759
7.237
4.1142
2.6071
1.2875
2.8077
3.2634
2.7843
2.4609
2.4541
-0.5163
-3.6489
-2.8978
-1.7849
-0.7469
2.8149
7.5033
10.2721
9.4411
8.8473
6.8646
2.973
1.9156
-0.6529
-3.1472
-4.203
-5.9713
-3.7343
-0.4135
2.8977
3.1587
2.5329
3.7934
6.1396
6.4685
6.6083
8.5783
7.8396
6.9904
5.8541
6.0932
7.6237
7.0897
7.2245
8.5423
6.9737
4.4136
4.471
2.2529
0.3464
-2.7172
-5.753
-4.6261
-1.4596
0.6314
2.9525
1.4096
0.0902
1.7288
2.8699
3.266
3.427
4.9489
4.3896
3.3068
2.8716
1.7522
2.337
3.1966
0.9169
0.2293
0.4382
0.5858
-0.1528
1.164
2.353
2.6938
4.2968
5.142
7.4839
7.8647
4.1235
0.8163
-0.0115
0.1398
1.9639
3.7712
3.5027
1.9153
-1.0373
-1.519
-3.3316
-6.1718
-6.5363
-3.9679
-3.521
-6.6696
-7.6999
-6.8965
-4.8403
-4.6879
-5.8949
-7.8035
-6.0081
-2.4641
-2.6318
-2.2982
-5.7128
-8.6432
-5.1937
-3.0579
-3.342
-6.7939
-6.9366
-4.1576
-4.3072
-4.0523
-4.5765
-4.8975
-5.1717
-1.6026
4.6353
7.1501
3.0423
1.6246
2.8027
4.1748
2.0572
2.1789
1.5784
2.5936
4.1411
2.8683
0.9149
-0.0111
1.6209
3.6174
3.2928
3.0461
2.7694
4.0531
1.1876
-0.1517
-0.4966
-0.9916
2.0316
4.1199
2.8995
1.5076
-0.0926
-3.3594
-5.1294
-3.8239
0.6532
3.7795
6.9415
6.731
4.4
-1.4528
-6.712
-11.5219
-14.4968
-13.3595
-10.7659
-8.0403
-5.9212
-1.8484
2.365
2.4965
-1.4431
-4.655
-5.4982
-3.7328
-1.0801
-1.4236
-2.7603
-0.9746
-0.3826
-0.8573
1.0001
3.4604
3.5745
2.4808
1.583
2.2246
2.0735
0.6005
-1.3443
-0.7313
1.8934
4.3186
5.3985
5.7687
3.6494
0.4598
-0.2781
1.3092
3.5928
6.7559
8.2797
6.14
4.1063
2.6907
1.119
1.513
1.7414
1.7339
1.9285
-0.4824
-3.7424
-4.9663
-2.4249
-2.2735
-2.3349
-4.0125
-2.4785
0.2104
2.1593
0.5584
-2.4989
-6.5575
-8.7421
-6.8593
-6.5574
-6.6448
-5.2619
-2.073
-3.4814
-4.2442
-3.6557
-5.5169
-4.1646
-2.8149
-7.0598
-9.2067
-7.2196
-7.2062
-4.6474
-1.0634
0.2188
-2.0839
-1.1291
0.2021
-2.7057
-4.3452
-2.5285
-0.9425
-1.943
-3.7649
-2.4789
-3.1701
-6.9013
-9.324
-6.7426
-2.9332
-1.0028
-1.9577
-3.5526
-5.0155
-7.3078
-7.2335
-6.8318
-7.539
-7.303
-5.223
-1.8128
-1.7285
-3.6382
-2.1979
0.7095
1.8228
2.265
2.3838
1.3613
0.4163
0.2144
-1.0323
-1.5153
0.9735
4.252
4.5344
3.1393
4.2682
6.5628
8.9036
10.2347
8.4428
5.1609
2.5329
2.7951
3.0426
1.8472
1.4175
-0.8355
-0.7107
0.1587
-1.2008
-2.6051
-2.0499
-1.5377
-2.3306
-5.0061
-7.0269
-5.843
-2.9141
-3.1534
0.3446
1.0743
-0.3248
-1.492
-2.5433
-1.7299
-0.599
0.4113
3.9073
5.7907
2.1854
-1.4564
-4.1641
-2.5075
-0.1472
0.6233
0.5374
2.2869
2.8951
3.1796
5.4995
5.4162
6.3154
8.3774
9.1141
7.8461
4.6416
5.2014
6.7298
7.6182
8.6328
8.6204
5.2364
3.4007
1.0834
-1.5405
-0.3447
0.78
0.3386
-0.5989
0.4564
2.2594
2.5897
-0.1331
-5.3057
-5.3341
-2.925
-0.5699
0.4082
2.1258
3.2575
1.8154
3.6786
3.4486
3.1302
2.2317
1.9744
4.7606
7.1001
9.409
11.1815
10.8105
9.8909
9.4239
9.5046
9.7791
6.7789
5.5933
7.2686
7.1744
7.1813
7.9802
8.3624
6.178
4.1247
5.129
4.0043
0.9656
-0.2419
0.3547
1.7181
-0.3528
-1.3173
2.4732
4.4368
4.5506
7.0122
4.7698
1.0625
0.7446
0.4286
-1.5098
-3.1778
-2.6079
-0.0697
2.1751
0.8742
-0.8974
-0.5739
0.1846
-0.6029
-0.9531
-2.7365
-3.1688
-1.479
-3.4725
-5.2267
-4.6041
-3.4071
-2.215
-0.3597
4.5465
7.4256
6.2276
4.5697
5.4013
6.1518
5.5235
3.3766
-0.4415
-2.8669
-5.8242
-5.2445
-5.4048
-6.1746
-3.6182
-2.3173
-0.8191
-3.0745
-3.1694
-2.8407
-8.0745
-12.5667
-11.0026
-12.0065
-11.488
-9.6332
-9.1008
-8.531
-8.2952
-6.9681
-5.4021
-4.547
-4.3805
-4.0261
-4.8728
-5.9606
-5.4656
-2.7032
-2.0663
-1.1822
0.5838
3.8718
6.2389
5.819
7.447
6.2503
2.6374
-1.7685
-4.7679
-3.3916
-2.9263
-2.9945
-2.527
-3.9274
-2.0749
0.5453
0.9912
0.2634
-0.6637
2.1994
5.158
7.5061
6.8753
5.7766
0.3973
-0.7848
-2.0773
-4.9791
-5.4965
-3.2281
-1.2743
-1.6794
-2.2104
0.8847
3.513
2.2799
-1.6149
-1.2403
0.3804
1.7232
1.5417
1.0089
2.062
1.8601
1.039
2.0146
4.276
3.9377
0.3631
-1.7878
-1.2379
-2.2483
-1.7937
-0.5591
-4.1196
-5.8141
-3.1626
-0.6073
-2.4649
-2.9903
-3.5385
-4.9759
-4.7666
-3.2772
-5.4678
-8.1307
-8.0952
-6.459
-5.0987
-3.6058
-5.3869
-8.6162
-8.1946
-4.7471
-1.4352
0.1137
-3.3275
-7.3827
-6.7101
-3.421
-2.5564
-1.8722
-2.5525
-3.9658
-5.3742
-7.0272
-7.1334
-6.5593
-8.3239
-10.1917
-11.2376
-10.6588
-10.2353
-9.5784
-8.2054
-6.9442
-5.2488
-7.4382
-8.5373
-6.2181
-7.4742
-10.665
-11.281
-8.0405
-4.5208
-3.0419
-4.5832
-6.559
-5.0128
-0.6732
-0.3735
1.5858
0.3124
-4.6723
-8.1391
-7.6286
-7.0999
-8.3566
-8.2174
-8.3012
-6.2449
-3.5156
-1.3852
-0.7891
-4.2044
-4.9766
-4.2005
-4.6783
-6.6722
-4.687
-1.1197
0.1056
0.7063
0.2011
-0.6342
1.6242
0.692
-2.5081
-2.6767
-1.8974
-2.3806
-2.6421
-1.4658
-1.5689
1.7355
3.1122
3.9728
2.231
2.2294
4.6841
6.5109
7.9459
5.0183
4.9275
4.069
2.078
3.0311
2.8421
3.2938
6.0738
6.2362
7.1705
10.1608
10.7698
6.1025
3.2951
5.4934
4.9348
3.8444
4.2318
6.3624
6.379
5.0026
3.3185
3.6301
3.9208
6.8752
5.9511
1.1869
1.3383
1.8405
0.7975
1.7157
5.4303
8.3205
8.3695
6.5476
3.5903
2.1131
1.7416
-2.2261
-4.5394
-3.7867
-2.9256
-2.8781
-4.3104
-1.3892
1.1894
1.1245
-2.6049
-3.4039
-2.8629
-4.6286
-6.0906
-5.9333
-7.117
-7.1945
-6.7063
-5.2532
-4.7281
-2.208
1.1612
1.0634
-0.2652
-2.3828
-3.5279
-3.9816
-2.8283
-0.3851
1.7339
3.1157
1.8196
0.9109
-1.6274
-4.3278
-2.5161
-4.1317
-6.2715
-7.0034
-8.143
-6.3694
-5.8348
-6.078
-6.9362
-7.9895
-9.8476
-10.8612
-9.4945
-7.3905
-7.3922
-6.1197
-3.3387
-4.2105
-4.3799
-3.1437
-4.5833
-7.1921
-7.7966
-6.7153
-6.9047
-5.2463
-2.7412
-3.0676
-5.5722
-6.7206
-8.5751
-7.5947
-7.7139
-6.3849
-3.3344
-2.8362
-4.3386
-5.1652
-5.9386
-5.1057
-6.1076
-5.8807
-1.9563
1.9819
4.6722
3.3602
1.4163
1.8682
2.7863
1.0008
-1.569
-0.2091
0.3401
0.9389
1.9549
1.0701
1.5206
3.7251
3.1483
0.3219
3.431
3.9302
2.7436
4.0063
3.6296
6.4669
8.9334
8.203
7.6146
6.6837
6.8271
7.0177
5.476
3.1401
3.2869
4.861
2.4793
-0.9663
-3.7009
-2.1391
-1.4789
0.6376
2.6439
1.9639
-0.6491
0.6075
-0.5805
-1.0126
-0.2216
0.0487
-0.4118
-0.3044
1.5115
1.7629
4.2071
5.2526
4.775
3.4513
2.3325
-0.0685
-1.1726
-2.1544
-2.2758
-1.0804
-1.9114
-4.2444
-0.6021
4.2456
4.5299
3.6785
2.6995
2.9597
0.7649
-3.4474
-1.9592
1.7472
1.468
3.4092
3.8605
-0.5803
-3.4138
-2.048
-0.4682
-1.5153
-3.3652
-4.1353
-3.7871
-4.3727
-5.1115
-5.8119
-6.0525
-5.0804
-3.6086
-1.5216
-0.2164
1.1475
4.0836
6.0995
2.4615
-0.7118
-2.3238
-1.9299
0.3511
-1.0215
-3.7441
-7.8896
-12.5374
-10.337
-7.2924
-7.8856
-9.1007
-7.2998
-6.5109
-6.5626
-7.4933
-8.0912
-8.1868
-9.2804
-11.0513
-11.3567
-11.8584
-16.0495
-18.4321
-19.3019
-22.1959
-21.0508
-16.2526
-11.877
-10.4232
-8.7703
-8.8602
-10.4169
-10.9653
-12.2869
-14.0311
-12.2595
-8.3836
-7.8616
-9.6626
-7.5624
-8.8165
-9.7925
-5.4412
-4.7758
-8.0556
-8.4277
-8.6563
-8.8948
-7.1891
-6.5852
-5.7226
-3.4842
-5.1543
-6.4176
-5.4579
-6.0202
-5.3827
-5.9183
-6.7389
-7.2591
-8.6167
-10.0657
-11.0426
-11.7891
-12.3935
-11.5302
-8.7359
-7.1314
-8.9627
-10.4238
-10.324
-11.6185
-14.18
-15.3689
-11.1731
-8.7981
-11.1169
-7.3261
-7.1709
-7.9653
-6.8321
-4.4253
-2.449
-0.9504
-0.394
-1.385
-4.1239
-4.1593
-2.588
-0.7921
0.6604
-0.5288
-4.9054
-7.223
-5.532
-2.8276
-0.2552
2.0174
-0.4994
-2.4578
-2.1274
-1.0136
-2.5243
-5.2511
-6.7399
-8.2194
-6.7061
-5.5697
-3.5729
-3.1423
-2.6099
-0.9099
2.0258
0.8006
0.6813
-1.8168
-1.8913
-0.569
0.1138
-1.2432
-3.2639
-3.6445
-6.6069
-5.4869
-2.8264
-1.3161
-1.0717
-2.0174
-4.5445
-6.0423
-4.1761
0.7261
4.6471
7.4138
9.4033
10.2104
10.4253
12.2082
13.5538
14.9175
14.127
15.3509
19.0528
18.7738
15.3457
12.7201
11.1699
7.7148
8.8823
11.1843
10.4316
9.5861
8.6247
5.77
3.4385
0.8824
-0.3156
3.4643
6.2548
7.3413
7.1703
4.2298
2.796
4.2025
3.4058
1.9768
0.9013
1.974
2.9436
1.2737
0.3494
-1.535
-3.1652
1.6206
7.8814
6.3815
1.4027
1.2523
1.7308
0.6525
1.0176
2.3862
0.0766
-3.3491
-5.1579
-2.8418
-3.7842
-4.1577
-0.9604
1.1276
4.4038
5.1835
3.799
0.5787
0.7558
1.6731
-0.0523
2.3823
1.2703
1.4458
0.0482
2.1226
6.2418
7.2849
7.5462
7.7371
7.5944
7.3875
6.7954
5.4554
3.5219
4.2636
4.7649
4.0759
0.7547
2.0723
2.4832
0.0238
-0.0365
1.0141
0.7106
2.1769
2.7557
3.6853
5.3096
7.0928
6.3988
4.8462
6.2345
6.9053
3.9288
5.1717
6.1401
8.7759
9.1537
9.3628
9.8487
9.0982
7.7235
7.0765
8.2494
9.8627
9.6374
9.8111
13.3973
14.8115
12.7186
12.7331
15.5563
16.6064
17.2812
14.2508
8.6382
8.0075
7.059
3.9427
3.5408
6.9979
8.6002
8.7907
7.7192
5.1297
5.4621
9.3934
8.8258
6.6142
5.2844
5.9758
2.7089
-1.1043
-0.9623
0.1537
-0.0974
-4.8745
-6.7068
-3.4169
-1.4155
0.1318
0.657
2.1086
2.8798
3.0006
2.3203
4.0484
7.9361
11.2903
15.8454
19.8979
21.4406
23.583
20.6369
16.6497
15.9787
17.6854
17.7266
16.8508
14.9693
15.3093
17.0244
16.6634
14.9925
12.2466
12.6819
13.9388
15.9112
17.2595
20.2488
21.0475
15.2041
11.6846
8.0179
3.8305
4.3644
4.3208
3.3034
0.8998
0.9588
3.6
2.4141
0.9881
1.9014
6.1068
7.4745
8.2453
10.131
10.9076
10.6561
12.4878
13.8192
12.0069
13.5231
17.8276
18.3736
15.18
14.9717
18.3392
17.8844
16.2624
15.318
16.8638
19.589
18.0487
16.0801
17.3729
14.3408
7.6593
2.9111
-0.6034
-2.4146
0.8467
2.4866
2.8426
1.4854
-2.2492
-3.7098
-2.1444
-2.0171
-1.734
1.31
7.1394
10.7403
14.3158
16.3045
19.7324
20.6452
20.9317
25.4823
28.2868
30.0038
30.8286
29.5022
26.4703
27.5984
29.3301
30.5605
31.0964
29.8839
29.2618
27.5311
28.1843
31.3557
34.552
35.9311
33.8709
31.4525
28.9226
28.6146
28.8823
28.9355
29.617
27.2265
26.4277
26.7487
26.1216
24.7029
23.4298
23.4928
24.1486
23.8462
24.7941
23.5287
21.0472
19.1492
15.7074
12.9996
12.4603
12.7139
8.2061
2.5725
-1.1153
-3.1962
-3.6404
-3.4828
-0.6801
2.006
3.062
1.6873
2.4609
-0.3358
-2.7316
-0.9119
2.0015
1.7839
1.7053
2.1922
3.1531
3.0966
0.8322
-0.4655
-1.2812
-0.7113
1.3569
4.769
7.3778
9.0052
12.3797
12.8382
13.3833
17.8423
22.265
23.9793
23.8811
24.3336
26.0893
27.6166
24.8724
22.7309
22.9424
23.6569
22.9091
21.0582
22.0213
20.4338
18.6223
19.4209
22.229
22.9878
22.9682
21.3377
17.8894
16.286
15.6619
13.0505
10.3157
9.1793
8.0637
7.9336
7.4484
8.3142
11.071
11.279
8.6619
6.9226
8.6754
10.716
13.1414
11.7691
7.9866
5.3414
7.301
8.8363
10.9731
12.4148
14.4512
16.2805
16.59
16.1385
16.1428
13.7574
10.4199
9.1292
10.2182
15.848
21.9762
23.5241
24.5119
24.2202
23.5272
26.4347
26.3776
23.0791
20.415
20.2299
20.689
22.0931
24.5871
26.3158
25.1247
23.5606
20.9469
16.6793
13.4097
13.1398
17.4362
17.6234
16.887
18.8198
17.9598
20.3497
19.8493
20.0465
19.8372
18.8399
21.8783
21.224
21.3283
22.4212
23.4401
24.6423
25.6525
25.7228
25.7383
22.3002
18.1313
15.2218
15.6477
15.0575
11.5238
11.9778
15.0997
18.0269
19.001
17.1085
16.9766
15.5779
15.1222
14.6427
15.7337
16.4933
15.9296
11.9994
9.8603
9.5208
11.1514
10.9112
11.4357
10.3108
10.7451
11.7632
9.6744
10.1221
8.8998
8.6799
8.6893
7.617
8.8745
10.9494
12.6859
13.3235
11.913
10.1049
5.532
4.6013
5.7798
7.3467
6.9117
4.1332
5.5474
6.3111
5.0938
7.3748
6.72
4.19
3.5254
2.0881
2.3409
3.4828
6.2428
4.8095
4.7974
6.5396
9.2966
13.1719
19.2456
22.1494
20.8539
20.426
21.0273
20.9446
16.9157
16.1059
17.805
17.4659
19.1745
19.7497
16.1369
15.2768
16.322
17.5077
18.4309
20.6134
23.2882
24.0737
24.2301
26.98
27.5467
26.9226
24.4668
21.6288
23.9464
24.5837
20.2596
15.1183
11.523
14.1024
18.5333
18.8068
17.1429
16.9039
16.0877
14.7534
14.7889
14.989
16.5237
15.4413
14.1574
18.8777
22.4959
23.477
23.2916
24.4028
25.3057
23.09
22.4424
22.3871
21.1325
16.5669
13.0501
11.3535
11.3202
9.1951
7.6974
7.695
6.926
10.8617
11.6595
11.188
11.0965
9.997
7.7121
6.8351
7.9611
7.6792
6.988
7.704
6.4112
8.7645
10.819
12.4922
13.1308
14.2956
17.7646
23.3046
25.3256
23.7647
21.79
22.9661
24.7463
27.8665
29.3625
31.022
29.8282
29.4183
31.1237
29.6136
28.9604
29.7093
29.4798
28.6842
27.6234
27.0306
27.6355
27.4061
28.5978
28.3767
29.9631
30.645
27.444
23.7294
22.506
22.9581
23.8258
23.5412
21.3248
18.4432
18.3889
20.5257
20.3349
19.817
20.1906
18.6166
17.8684
20.2959
22.6208
22.3654
19.4
16.0543
14.4653
10.3214
9.3575
11.9707
13.4536
15.3878
11.4076
6.5913
7.6245
7.3691
7.2323
7.4015
9.8899
8.7098
9.8852
11.5205
11.0033
14.1434
16.6286
18.5435
20.9555
20.3563
21.7463
24.0863
25.7126
27.4293
28.3372
26.4122
24.3416
25.0273
26.3745
26.4746
26.0257
26.0565
27.8506
27.4874
27.4464
29.7263
32.826
34.3389
31.932
28.1645
25.9645
28.1823
29.8425
31.5786
32.3069
31.1578
32.1033
32.7532
36.077
38.5324
38.7343
38.9637
40.3598
40.2673
36.4665
35.4311
32.9945
31.1403
30.636
33.879
36.8182
38.5893
36.2264
34.0483
33.34
35.4123
38.1401
37.7085
35.6911
32.5956
31.5369
32.6128
31.3896
28.8627
22.9834
19.4181
20.1313
20.3271
19.4635
18.0495
17.8192
22.0392
22.3575
19.8018
19.1611
18.3688
15.0099
13.5958
12.5411
11.7698
11.8165
9.5903
8.9668
6.9677
3.9017
2.5265
5.4485
9.3226
11.5565
11.9244
10.5503
12.6551
10.6002
6.5938
5.1463
2.4998
2.0259
5.0216
4.6423
8.0781
9.9179
7.6258
7.034
8.1892
11.1862
13.7246
11.103
10.1223
9.7751
9.2434
8.9126
6.8519
8.9689
8.9463
7.9489
11.9306
14.9794
13.0938
13.6003
13.5594
13.9769
16.4893
21.7951
25.3453
22.8506
21.0509
22.8534
21.7454
20.7145
21.4227
21.4706
20.6807
20.7717
22.6387
23.6196
25.8948
27.0237
28.6434
28.8476
26.2592
26.7783
24.2402
25.0346
26.4326
26.2027
28.9335
29.7466
30.5567
29.6172
28.8791
29.6111
26.1402
26.6016
28.4862
27.1935
29.0578
30.2594
30.6987
27.3148
25.5147
28.1089
32.0385
34.0833
33.7197
30.0114
25.0054
23.9882
26.2098
28.9029
31.0711
32.813
33.5911
29.8842
28.3799
28.8791
27.3494
29.3437
30.0231
27.6004
23.9369
22.2775
22.7453
23.5646
21.1837
22.441
25.1684
24.9227
22.7893
22.5655
22.7016
20.4041
17.9541
18.8071
17.3584
18.9681
20.143
16.6259
14.9898
16.521
16.9037
17.4892
16.9671
19.5259
20.9155
17.9216
15.7552
17.361
17.3149
14.6985
16.4927
18.8385
18.2107
17.6772
19.7165
20.3837
22.7837
25.2651
24.3188
21.9426
18.19
14.2268
11.0798
10.0318
13.2303
16.3096
15.8048
14.6259
14.0937
14.5263
17.2951
17.5998
18.3831
19.8244
22.7393
24.6864
23.7061
22.5166
24.5749
26.1613
25.1556
24.0567
24.3041
24.335
22.5526
20.7431
21.0188
22.0818
20.0477
20.1757
20.8995
22.1759
23.0887
22.9441
24.0419
24.7319
28.7796
32.8814
31.0792
30.2072
28.5894
25.7579
25.6636
26.1182
24.0513
24.6794
25.4593
26.8942
26.052
26.2259
24.1254
22.5136
22.9735
24.5072
24.505
22.314
20.853
20.6592
21.1014
21.1036
18.2382
14.1395
13.6719
14.6588
15.2607
13.8414
13.4118
11.9857
12.0685
13.5568
14.4831
14.6533
14.9171
15.6992
14.4128
12.5662
16.0869
18.2918
18.8748
19.436
18.7861
16.8357
14.6535
15.0654
16.6198
16.1593
14.1434
10.8208
10.509
12.5657
13.8772
13.0407
14.2083
14.0212
14.0217
16.7555
20.6382
24.1885
23.0812
24.8559
27.672
26.6874
26.3099
23.5813
21.9035
19.7296
17.5285
17.6106
19.0447
20.2302
23.6143
24.3735
24.6945
24.6823
25.5793
26.2461
26.0073
28.2943
25.6868
21.8041
21.8484
21.3852
19.2233
17.3276
16.6284
18.5526
19.7265
18.8474
21.7812
24.663
24.2974
22.6887
24.422
23.0904
20.269
19.2524
19.8241
17.9368
15.9305
13.107
10.3263
7.4274
9.2026
13.6867
13.9857
12.2276
12.3996
10.8314
7.3067
8.4843
9.0671
8.2877
8.103
6.2005
6.3329
7.5349
8.5255
8.6675
8.3581
9.8159
12.6361
16.2123
17.5369
17.9625
17.7846
18.6539
18.3886
17.1022
17.5115
17.4402
17.3038
16.6888
17.278
19.8936
21.6429
21.034
21.8061
20.318
17.0863
16.6695
13.891
10.9048
8.0921
9.331
11.7094
13.4771
11.8223
9.1845
4.0733
0.6383
1.5866
2.1171
3.478
5.9666
4.1764
6.4733
4.9136
-0.1275
-0.5148
-2.075
-3.6963
-1.7106
-0.7608
1.9831
4.704
6.3424
8.3411
9.4746
5.9703
7.1339
7.2317
5.2478
6.0446
4.416
5.3376
7.2145
10.1591
12.6172
9.7548
8.7352
7.8953
4.4495
5.3627
4.0976
3.5714
4.5803
3.6539
4.4321
7.1815
7.9676
5.7218
5.9658
7.2859
6.8783
5.1075
3.7564
5.5789
8.6818
11.0822
10.6721
10.4255
10.6213
10.4558
11.1133
8.5457
7.9384
10.6308
13.6576
14.8685
17.9068
16.724
14.6406
17.0627
18.4554
15.0766
9.4065
4.1735
4.6003
6.2871
3.917
3.1902
4.9042
7.3699
7.4777
8.5359
10.139
7.7522
10.9877
14.0022
13.675
14.9359
13.7707
8.6649
5.7741
2.3778
0.7938
-0.6695
-1.0146
-1.5891
-2.9771
-3.8616
-3.5806
-2.0871
-1.0462
-2.4691
-0.87
0.9483
1.6903
1.8017
3.0138
5.6248
7.711
7.415
7.2607
9.4891
12.4827
12.0542
13.3266
17.7919
17.7321
15.8897
16.325
19.3502
22.0374
20.3827
19.006
19.1584
18.9161
18.9486
23.4161
23.9077
19.473
14.5186
15.872
18.4841
18.9877
18.0551
18.6742
17.9973
15.9668
13.8649
11.6577
12.1219
14.6783
14.5586
13.6719
13.8913
12.1358
12.4128
13.0385
14.1977
17.14
19.1076
20.2148
20.6277
20.5911
17.2404
12.2203
10.1252
10.9121
15.9846
21.2858
23.0305
21.1565
19.281
19.6774
21.6925
20.9835
19.044
17.8591
16.415
14.5258
15.2535
17.6548
16.7398
14.4416
17.6747
18.1449
13.8008
11.7707
8.2896
8.0651
10.3254
11.9848
12.1267
11.0458
9.8969
9.565
7.4998
7.2003
5.9324
5.2137
5.7255
7.2487
6.7438
7.3567
9.3313
10.9548
8.7264
7.6062
12.1697
12.4373
9.6394
9.0008
8.3691
9.1816
9.2226
10.2997
10.3043
9.4606
6.6497
6.4987
8.217
10.3434
10.542
9.1155
12.0746
15.9464
13.918
14.68
15.099
15.2024
17.6468
18.9925
19.3487
20.5976
21.219
17.7998
16.1236
15.2485
15.8478
15.0794
15.1812
17.7488
19.4484
21.0114
22.0725
22.7336
22.4552
19.9368
18.9728
19.9667
21.3775
21.4344
20.4859
21.1978
22.4891
22.7963
20.2761
16.1112
11.8907
11.6249
11.261
14.5623
18.1097
17.2292
19.1571
21.1639
23.6292
23.8709
23.3937
22.609
22.4209
22.2056
22.46
23.7069
23.159
21.5284
22.383
24.0042
26.1162
26.5543
25.1381
25.0092
23.2526
22.8269
20.87
19.6256
18.6684
19.1174
19.0565
16.4601
15.9318
19.9015
21.2688
21.6376
23.4806
22.7551
21.9104
23.2653
21.3851
18.0612
17.029
19.399
20.1718
18.9679
19.8507
21.4939
22.2128
24.1561
26.2825
25.9712
25.0182
23.4609
24.6438
26.6498
27.5504
30.089
32.37
31.924
28.7135
25.5224
23.7319
24.6879
24.2436
22.7273
21.8894
21.7729
20.3374
20.7112
21.4745
18.9077
16.594
15.7592
12.8002
11.7259
10.5367
8.9223
7.9209
8.7791
11.7655
12.9272
11.8459
10.3252
11.3654
15.0564
15.2382
14.0901
12.0837
13.5718
16.333
17.8158
18.3801
16.6525
17.7768
18.2081
17.8666
18.1758
17.4843
17.2072
18.7774
19.4936
18.3985
17.2196
17.8537
19.0349
18.6337
21.6446
23.5477
24.4111
24.2089
21.5293
19.9403
17.7492
17.4677
19.5418
20.338
20.2978
19.8172
20.8742
20.2758
19.7212
19.2258
20.1963
19.9554
21.9145
20.367
16.8622
18.874
20.2091
20.0862
20.2829
21.0161
20.1472
18.4495
14.8919
13.383
15.5116
15.1145
15.3571
16.22
16.9241
17.2804
14.7844
10.2885
11.4305
14.832
15.4617
16.357
17.5874
13.8892
10.9227
9.7459
7.1268
7.0037
7.7356
9.1327
9.8282
8.5667
6.3893
5.1395
6.4031
6.8002
5.1621
5.6203
8.3564
10.301
14.2287
14.3054
10.5311
8.4525
11.6418
12.1463
18.3651
17.8448
17.1075
15.8988
16.2386
17.5548
19.5058
21.32
20.5741
18.3841
14.7553
11.4429
10.0712
9.4427
9.8312
10.7988
13.7174
16.5715
16.6557
18.0839
20.3087
20.4742
19.1642
19.4577
20.1612
21.7394
22.3072
21.4931
24.0081
26.9888
29.3976
32.5554
32.9274
31.0148
28.9903
27.376
29.4025
32.8351
36.0387
37.4948
38.1674
35.7549
31.8973
31.2411
31.383
30.8458
30.1977
30.6353
30.1887
29.1548
29.2545
28.078
28.3264
27.1063
21.4376
17.0059
15.2722
14.17
12.2874
10.3998
8.516
7.5896
11.4959
13.9426
13.5184
11.7165
12.7082
15.6369
17.9468
17.827
16.4179
16.0995
17.4815
18.9083
20.3305
20.7045
18.0852
14.7478
14.0757
19.074
20.3192
18.6318
16.7425
15.8032
14.5205
13.8794
14.5193
13.755
15.7113
18.305
18.5452
20.2101
23.1174
24.0807
23.26
24.123
26.1073
29.3136
31.8266
30.1766
30.0637
29.0916
28.2425
29.4777
30.083
28.2573
28.5189
29.5291
28.2536
25.9828
24.8674
20.571
16.6712
17.3859
18.195
16.4602
15.8944
14.939
16.1208
19.2423
21.5957
21.5691
19.527
18.2842
18.9883
19.1765
19.7297
20.9731
22.1475
22.4255
25.5242
25.3314
25.3696
25.5826
25.1226
26.423
23.7276
24.4672
25.1869
25.5909
25.503
27.0977
28.7885
29.5112
27.4811
25.8678
28.6068
31.9016
33.5934
29.9544
28.97
31.7625
31.6869
29.2552
29.81
31.6194
29.9784
26.9721
23.3196
19.1654
17.0428
17.5876
18.0364
15.7943
14.2711
12.3808
13.8442
13.8316
12.6929
13.0685
13.7994
14.9433
16.9465
19.6342
20.3904
16.7364
15.8527
14.1751
11.0625
8.3534
8.0074
6.6083
7.3336
9.5692
7.9031
4.2958
4.5198
6.9631
8.6093
7.6894
4.6749
1.6305
0.1527
-0.8309
-1.8274
-2.7744
-3.113
-2.3995
-2.9525
-1.9801
-1.5176
-2.8883
-2.4065
-0.9214
-0.2288
-1.9086
-0.7832
2.0321
2.5515
1.1963
2.3998
3.8774
4.1588
4.4314
5.0023
7.0062
9.6209
8.4075
5.5027
3.7336
4.1729
5.8175
8.4518
10.2007
11.5627
9.787
8.0946
9.7526
12.7631
14.8876
14.4618
14.8551
14.3788
13.5535
12.6361
10.7858
8.063
7.821
12.1535
17.8272
19.3811
20.0319
16.809
15.5032
16.8429
15.8595
15.6244
18.7089
20.9493
19.518
21.1563
23.6644
22.3696
18.5098
18.3551
20.2628
20.1019
20.3068
19.6376
18.9879
18.3541
16.4576
11.9673
8.1117
6.7452
8.1165
8.3905
6.5212
4.9191
3.9333
-0.3885
-3.8144
-4.9573
-2.2123
4.1437
4.98
2.9315
3.5451
6.1724
8.1421
8.3754
9.6769
11.503
13.867
15.3473
15.3036
16.683
17.309
17.2197
16.9199
19.2517
19.4582
18.5338
16.1531
17.0552
19.4607
21.5752
21.5651
21.7358
21.7597
23.6368
24.9163
22.837
21.552
21.9572
22.7448
23.2514
22.649
19.4278
19.2095
19.0713
16.8454
13.3457
11.6158
11.0353
7.1695
5.3612
7.0388
5.0912
1.38
0.8066
3.6713
5.0485
5.6715
7.7679
12.7731
15.5647
17.7258
18.3029
16.4117
15.1785
14.9507
16.4542
19.4877
20.3725
18.333
18.0222
19.9026
20.1156
20.8992
20.1752
19.618
21.0937
20.886
21.6358
22.0164
20.8767
17.1642
13.5943
11.4497
9.7004
7.2607
6.6393
8.3315
8.6822
7.4899
7.3439
7.9653
9.6492
8.6537
5.054
0.8923
-0.3019
0.2545
-1.6996
-4.7464
-2.3491
0.8347
1.1523
1.1654
4.4713
7.1781
7.3597
6.7662
6.9866
6.9688
7.0491
7.3637
6.2291
5.0198
5.1568
9.0541
12.2715
9.072
5.7895
6.1581
8.4783
11.3114
13.5187
15.1699
12.6292
10.2787
9.8282
9.398
8.6367
7.0948
8.1467
9.163
6.7398
2.1059
0.3913
-0.4039
0.4429
0.5773
0.4683
0.8386
1.9765
1.6208
-2.9246
-1.5901
0.6685
1.5345
2.6604
0.4795
-0.1756
2.8911
2.8273
-0.3055
0.7007
2.6486
3.7478
3.6899
3.4364
4.9195
6.045
6.3695
5.7712
6.4681
8.7002
9.2574
7.286
7.7051
9.1223
10.5056
8.7851
8.3394
8.3672
8.0917
9.1131
10.3344
10.7716
10.0217
13.0397
15.7717
12.5297
10.3594
9.612
5.7565
3.7093
2.3425
2.8959
8.2607
9.9
9.899
12.0114
13.5231
13.7609
12.5055
10.8046
9.7583
6.3955
4.6328
3.4246
2.1316
1.1518
-0.8453
-0.5961
0.0996
-2.1877
-1.7896
0.4725
2.8461
2.6707
1.2126
3.2672
4.6485
1.5744
-0.7177
-1.9986
0.4451
2.0947
2.0325
2.2183
4.6701
2.3149
2.6666
1.981
2.472
5.7044
5.4248
5.619
4.9466
2.5032
1.198
3.6755
7.9472
10.0576
12.8417
14.2018
13.7577
14.556
15.1142
13.7702
11.6363
8.4449
6.5466
8.6799
9.2345
6.7989
7.1654
7.7019
6.1753
3.1762
4.6844
2.91
-0.1768
-0.2477
2.021
3.7529
5.4653
8.0746
7.1618
8.116
10.8625
11.7513
9.7691
12.0973
14.4418
11.8806
8.8206
13.1583
19.7157
20.0691
21.7235
23.649
26.3361
28.7037
26.4662
23.6997
21.1641
19.8583
20.0794
20.5359
17.5051
15.3476
15.6053
17.2551
13.9641
11.445
13.3454
11.6748
9.032
7.9006
6.8933
5.0787
4.3936
4.6613
1.4707
-3.5249
-6.4568
-11.0773
-13.6398
-14.0474
-13.9687
-14.1078
-13.7111
-15.3709
-17.1503
-17.2821
-17.2266
-15.3906
-16.3075
-20.9048
-21.1951
-16.9424
-13.659
-12.427
-12.223
-14.5879
-16.2648
-14.6252
-13.4723
-9.4987
-3.4662
-1.8562
-3.8724
-5.7798
-7.4186
-8.1234
-6.148
-1.7328
3.5634
7.0453
6.4355
8.1237
9.7748
10.6387
11.4405
13.2603
14.7241
17.5776
20.8787
18.3424
17.4682
19.366
17.9078
14.1578
13.1434
16.8703
17.4432
15.9221
15.264
14.7412
14.3607
14.0911
12.7633
13.3493
11.9069
9.1669
8.6467
10.7234
10.852
7.3105
6.0942
5.7439
7.0472
8.481
10.187
11.8213
13.4725
15.0978
14.6213
13.7239
13.6604
13.8234
13.6414
12.2451
9.9996
8.6767
9.9309
11.085
11.5611
12.372
9.4494
6.2332
3.5933
1.023
-0.1332
-2.6849
-3.6561
-5.8539
-10.5128
-11.0159
-11.9786
-14.2774
-14.3811
-16.9247
-19.8811
-19.6105
-19.4013
-20.4141
-22.312
-23.1082
-21.1858
-19.4321
-17.3426
-14.3531
-12.7823
-13.1203
-14.5587
-15.2759
-16.0954
-14.9267
-9.7168
-8.6122
-10.7297
-11.0577
-9.3065
-7.8529
-5.8525
-3.8497
-2.9171
-1.4717
-2.81
-1.9373
0.9678
1.2546
1.3138
4.1925
5.6364
6.9878
7.7813
9.3503
7.2401
4.8982
6.7745
8.6807
9.582
12.4364
15.2318
17.841
20.9876
20.0726
17.728
17.8553
19.6321
22.9427
26.5685
25.9841
25.1928
22.0392
17.9427
17.2726
18.3327
18.0304
15.8828
14.6412
13.709
12.2327
10.9763
9.6954
9.6566
8.5434
7.3173
7.0049
5.7974
5.0178
3.4676
0.2943
-0.2222
-0.1263
1.9074
6.3443
8.9357
6.9258
2.8535
-0.1799
-2.341
-6.1961
-6.5305
-4.3805
-4.153
-0.7992
1.9649
0.4955
-4.0638
-6.7482
-7.9753
-7.0434
-5.0476
-3.2969
-4.1685
-5.4354
-5.858
-5.7892
-8.6235
-10.3224
-11.1082
-11.4445
-12.0751
-12.8558
-9.6612
-8.9988
-9.7219
-9.4414
-11.425
-9.6401
-5.3882
-4.8176
-3.9333
-1.1982
1.618
0.4721
2.2053
4.646
4.9651
5.0187
6.5935
7.293
7.3371
4.8204
3.103
1.7624
1.9798
1.6071
1.9056
5.8747
8.182
6.7581
4.7261
6.0366
9.8481
13.6138
14.573
9.1405
5.1582
6.4502
7.1028
8.8587
10.482
11.1198
11.436
9.6132
8.7432
8.8822
9.1021
7.649
9.4836
10.8195
8.77
10.8568
13.9811
16.4702
18.1837
18.4499
15.6708
14.142
13.5068
8.4599
5.2369
4.3617
4.6182
3.3855
1.3482
1.7845
3.5504
3.7847
4.2841
3.0468
2.394
3.2813
3.7151
2.5462
3.7758
7.1457
8.089
4.4551
1.3805
0.465
0.4112
-2.265
-2.9454
-3.3901
-3.2705
-4.7141
-2.9245
-1.9098
-2.8981
-4.2578
-7.2067
-6.9039
-6.5691
-9.5856
-11.4816
-13.9159
-18.3848
-18.9073
-19.8046
-20.2575
-20.8942
-19.006
-19.5104
-19.4487
-18.8626
-21.4062
-24.0534
-24.8201
-26.1578
-26.8221
-24.5372
-23.6274
-23.7745
-23.7007
-24.3366
-22.8409
-19.7911
-19.316
-19.4017
-17.4263
-12.3737
-9.1685
-10.9833
-11.1398
-7.0574
-4.3545
-3.1511
-4.1353
-8.0316
-11.1127
-9.925
-7.5669
-8.1019
-8.0004
-5.0307
-4.0357
-2.1932
-1.6065
-0.4522
-2.4857
-5.2712
-6.6479
-3.7157
-0.8853
0.1908
-0.6382
-0.771
-0.0136
-0.4551
0.3565
1.4531
-0.4165
-3.1181
-2.6502
-3.4925
-3.4957
-0.6025
-2.0967
-2.2111
-0.7681
3.6114
6.3257
5.4015
3.252
-0.5024
-4.0275
-7.9819
-8.3553
-6.458
-5.9739
-3.87
-3.1453
-3.2555
-1.2537
0.1073
-2.3385
-3.6473
-3.1733
0.2134
2.3569
0.9179
-0.3443
-0.805
-1.4283
-3.5161
-3.6653
-2.5464
-1.3157
-2.9797
-4.7073
-5.2867
-2.6919
-4.0572
-6.9216
-8.5959
-9.7203
-12.2226
-14.0342
-13.3493
-13.1806
-13.7134
-12.6596
-9.8885
-6.8649
-7.3738
-7.4187
-6.5742
-7.5012
-8.1381
-9.002
-8.3802
-7.6664
-5.8791
-7.6742
-10.1168
-8.8827
-7.3908
-8.617
-8.3742
-7.0706
-5.821
-3.504
-1.4812
0.7673
2.6168
3.3913
1.2247
-2.8364
-5.9892
-6.06
-7.8498
-9.4669
-7.2119
-5.2131
-4.9548
-2.7852
-1.6066
-2.4623
-2.5978
-0.161
1.5946
2.0418
0.9532
0.793
4.2084
6.4499
6.8708
9.8925
11.6516
13.3424
14.5956
11.8599
9.6761
6.2347
3.0904
1.7611
1.4159
0.1954
-0.208
1.0708
2.2374
3.1659
2.6066
2.8771
5.0067
3.4286
0.2403
-1.071
-0.8259
0.965
-1.0601
-5.5653
-7.9504
-9.2045
-8.7301
-6.9851
-7.0247
-7.9846
-7.3043
-7.8037
-7.192
-3.7479
-1.5164
-0.4684
-0.2653
-3.2455
-3.7706
-3.3436
-5.3766
-6.6257
-9.0648
-10.8071
-10.4925
-11.9112
-13.0472
-13.4249
-15.0116
-16.4579
-15.7071
-17.0521
-19.7135
-18.575
-15.2286
-12.2115
-9.8761
-9.3667
-9.5397
-6.7612
-4.5785
-2.1362
-1.7014
-0.1966
0.994
-1.1456
-2.6505
-1.9805
-1.2467
-1.7875
0.0875
3.9064
7.6707
5.3485
1.4366
0.0264
0.1141
-1.8841
-4.7372
-3.7475
-4.3226
-3.7302
-2.7452
-2.1298
-0.415
-0.8512
-2.4365
-2.7451
-3.4297
-4.4825
-6.2134
-7.5891
-6.3658
-6.6011
-9.6479
-11.9944
-12.2214
-11.4688
-13.6789
-14.3643
-12.2653
-14.5542
-17.5006
-16.244
-15.3222
-14.5811
-13.6367
-12.1181
-8.8104
-9.6205
-11.366
-12.1494
-10.9645
-9.5005
-7.3524
-6.8994
-8.9438
-10.7468
-9.9167
-7.8734
-4.4827
-0.4247
1.3846
2.5321
1.7787
0.0223
0.2685
1.1095
0.3835
-1.5046
-4.578
-3.4152
-4.446
-5.4233
-6.8409
-5.605
-3.1934
-5.7564
-6.2734
-3.8793
-4.0937
-3.5558
-0.9998
-1.1222
1.7663
4.9353
3.4286
1.7202
1.0514
0.3374
-0.771
-3.0167
-2.235
-3.5642
-3.8284
-1.5043
-0.0393
1.6594
1.3552
-1.8885
-5.7934
-8.0609
-7.6426
-8.1852
-7.9822
-9.5032
-12.7703
-13.2383
-13.1287
-9.2484
-7.3
-7.8406
-8.8515
-7.4535
-6.8327
-8.4221
-6.6526
-5.3269
-5.6247
-4.8669
-4.8091
-5.2498
-6.4499
-6.4511
-6.0502
-4.0637
-0.8944
1.1758
2.9953
3.5999
4.5045
4.8576
7.5938
7.4431
9.2373
10.5409
10.349
9.195
11.8795
13.087
9.9534
5.8935
0.4904
-3.5721
-4.2018
-4.5387
-4.7898
-6.4198
-9.208
-8.5877
-7.738
-7.3717
-8.9038
-10.857
-12.275
-14.7963
-15.9267
-13.6936
-11.9941
-13.2267
-15.4148
-15.8838
-13.3861
-10.1943
-8.4093
-8.748
-9.2271
-9.981
-11.5326
-13.2122
-14.312
-11.8774
-9.9523
-9.1299
-8.646
-7.0572
-6.0969
-7.6821
-7.1052
-4.5075
-4.5526
-7.2718
-8.304
-5.9338
-5.417
-5.1215
-4.0072
-3.3788
-5.2091
-5.485
-3.1208
0.4613
2.4142
1.0997
-1.6333
-1.3636
-0.3496
1.6264
3.6552
5.8156
8.1819
10.2394
11.8583
14.8483
19.9043
22.1204
21.6989
22.3685
22.9071
20.4454
16.9539
14.9211
13.7699
13.3351
11.5231
9.6853
8.2955
6.4692
4.0286
2.7724
-0.8845
-6.081
-8.7394
-10.2431
-8.7612
-5.1245
-3.3949
-4.7803
-3.4124
-4.5726
-4.5993
-4.3019
-3.2498
-1.5024
3.2266
7.4406
7.9439
4.9641
0.4635
0.1141
-0.1177
-1.4929
-5.0295
-8.6944
-11.6371
-13.9342
-14.1671
-14.5678
-15.5767
-14.21
-12.2882
-11.5547
-11.0098
-12.2968
-16.6947
-19.7248
-19.0189
-17.7309
-17.7476
-20.2314
-20.407
-18.2958
-16.0524
-14.5533
-10.7553
-11.6676
-11.8106
-9.1551
-8.4355
-6.9934
-6.0741
-6.1335
-4.7221
-3.4485
-2.0754
1.1157
4.5349
6.9665
6.1036
2.9606
4.0311
7.8962
9.0634
8.7584
9.262
10.5356
11.5111
14.0595
15.3901
16.0044
16.0566
13.7082
11.0398
8.4831
7.3618
8.0941
7.6377
6.8922
8.0361
10.6167
14.9771
16.1611
10.9193
10.0081
10.4754
11.3302
7.9462
5.5077
4.6117
4.1635
4.2294
5.729
7.2369
6.1375
4.9178
3.3491
1.4833
-0.7044
-0.2808
-1.3674
-1.3096
-0.7458
-1.7377
-1.9851
-4.0371
-6.1014
-8.2298
-9.8143
-8.1126
-5.7746
-3.5978
-2.8472
-2.5313
-4.9479
-6.8543
-6.3387
-5.893
-5.9156
-5.5635
-8.579
-9.5621
-5.2078
-3.5701
-3.0955
-0.4179
1.5746
1.0244
-0.5629
0.5051
2.8024
2.6923
3.9208
1.5417
-3.0471
-3.7346
-2.1211
-2.7744
-2.6447
-3.531
-3.8675
-3.3223
-3.6646
-1.1842
-1.9854
-4.0428
-3.7134
-3.0414
-4.7139
-7.0337
-6.6177
-6.1717
-7.6779
-11.4373
-12.1528
-11.5418
-10.6754
-11.3676
-8.1268
-4.9991
-7.1049
-6.5359
-1.2188
1.8028
2.5705
5.0446
6.9136
7.0323
7.2809
10.5178
14.9168
14.5565
13.0912
13.5618
13.2462
13.943
15.9172
17.4046
16.0967
12.3525
11.6462
12.7429
15.2504
17.234
15.7415
11.7489
9.4663
10.5148
9.1272
6.5813
5.5143
5.9936
6.145
4.0377
2.8596
2.6733
0.6684
-2.582
-7.149
-9.0165
-7.9419
-8.528
-8.9814
-10.6164
-12.318
-13.0666
-11.1314
-8.1378
-5.6646
-3.6775
-5.2023
-6.9996
-4.1983
-4.5266
-5.4176
-7.2994
-5.8219
-7.4893
-8.4046
-7.7316
-9.228
-11.4311
-11.4738
-8.729
-7.3988
-6.7712
-1.5468
0.8002
-1.6215
-6.2424
-6.8654
-5.5373
-7.5718
-8.7046
-5.756
-4.2283
-2.6181
-3.4617
-1.1885
1.8559
3.1974
2.9809
4.6952
9.9365
9.9591
5.8037
5.1078
5.9427
7.4318
7.7464
7.833
7.427
8.2097
8.228
4.7575
2.4363
4.0172
3.3463
1.1451
0.1251
1.3823
3.9418
4.116
2.4645
0.201
-0.0847
-0.3319
2.9619
1.4959
1.6347
5.3605
6.8245
9.5389
11.8059
13.1005
14.1549
15.2828
11.9703
7.2853
5.0539
6.7702
8.4954
8.4015
6.2705
4.498
-0.2499
-5.1996
-5.4771
-4.7807
-6.0212
-7.7552
-10.4036
-10.6617
-11.5631
-14.9565
-16.0228
-15.2685
-14.371
-12.0621
-14.3654
-16.742
-15.6014
-16.2422
-16.6695
-16.9291
-17.9184
-15.0494
-16.2971
-18.5892
-18.9134
-16.7234
-15.0535
-15.6018
-17.0794
-15.9825
-13.3839
-9.3203
-7.226
-5.6004
-2.9099
-2.6399
-2.8892
-4.1123
-5.5596
-6.7261
-4.5004
-4.3082
-5.5833
-7.4378
-8.6158
-9.7085
-11.6057
-13.5092
-12.9866
-11.3532
-10.7827
-13.5105
-12.504
-10.0087
-6.6221
-4.836
-3.375
-3.0635
0.5847
3.6114
1.9614
0.5788
3.1118
5.4296
4.5405
2.7644
4.9119
4.5566
6.0398
9.16
9.0234
7.9936
8.7552
12.3156
9.0618
4.0872
5.672
8.5051
10.2148
11.2285
11.812
11.2346
11.27
8.358
6.1942
4.1669
2.855
3.9409
3.7361
5.4809
6.6082
4.0144
0.7526
-2.3145
-4.3195
-2.8265
-1.2019
-1.1339
-0.2322
-2.0749
-2.3158
-2.2146
-0.0289
0.5972
-0.8725
-2.4327
-3.69
-2.9293
-3.3648
-5.194
-5.858
-4.1219
-3.4093
-1.8081
1.0828
1.704
1.9563
2.8277
3.5507
5.7377
9.71
11.3375
11.4507
10.5882
12.1673
15.4694
18.1432
18.9318
15.2558
14.4642
14.3919
14.3717
15.9997
18.8816
18.4429
16.4661
12.9424
10.2023
8.3989
7.6817
4.789
2.9019
3.6997
4.2447
5.151
7.9209
9.4168
8.7968
10.2496
10.5662
11.6984
14.6024
15.4647
13.7813
14.4036
12.9861
8.3485
6.8994
5.6502
4.8074
4.5638
2.8525
0.954
-1.2244
0.1175
1.8349
1.6197
1.0615
0.7017
0.2123
0.8513
1.4383
1.7535
0.7786
-1.3829
-3.3472
-1.4268
-1.5284
-1.5464
-3.1279
-6.0939
-7.3559
-5.9201
-4.4459
-6.0328
-3.0547
-0.3268
-0.8034
-2.3245
-0.9108
-0.5038
-3.0195
-4.6299
-6.0916
-7.7282
-7.5192
-7.2501
-8.3062
-11.6313
-14.0473
-14.2059
-16.5006
-17.0751
-16.6746
-15.2533
-15.6192
-18.391
-17.9199
-15.6622
-13.684
-11.0301
-10.0219
-8.2895
-5.3085
-0.8008
1.5103
0.7557
0.8241
1.478
2.7729
6.1302
8.4781
8.5676
8.0936
7.5941
7.4584
7.7242
9.8991
12.0477
10.5414
13.0843
14.3001
11.4875
11.0516
9.8274
8.3934
7.3945
6.5605
4.5105
3.778
4.2287
4.612
4.8306
5.7759
6.006
5.2721
5.5738
4.457
3.0358
5.5744
7.9101
5.1366
6.467
5.6507
4.8957
8.6575
10.1091
11.8512
11.1913
10.4432
12.2522
15.6915
16.2762
15.034
16.4596
18.2522
16.9985
15.0084
15.2592
16.503
15.5784
13.5269
13.1009
12.3482
13.8445
17.2301
20.2597
21.0823
20.6502
17.2077
14.0985
13.8535
11.3075
12.9458
18.0403
19.2011
18.3992
14.0972
12.0352
13.3487
14.3502
18.5206
20.7142
21.0325
19.8907
16.4731
16.2215
14.1271
11.9616
12.6012
12.3845
10.5007
7.0729
5.0639
7.2707
5.2412
2.57
-0.5972
1.2818
3.8119
-0.9815
-5.6442
-6.0318
-6.6502
-9.7191
-10.0591
-9.0732
-9.967
-10.8027
-9.5514
-9.4278
-8.3275
-5.7929
-4.6105
-6.3255
-8.7645
-9.9234
-6.0773
-3.2569
-4.4011
-3.8606
-3.9379
-4.1988
-5.0757
-7.5119
-10.6496
-10.5049
-8.4324
-6.0384
-4.7273
-3.1115
-2.9279
-2.1892
-1.8487
-0.5226
-1.0289
-2.4364
-4.5955
-7.4226
-8.0076
-7.3966
-7.506
-8.3126
-8.7777
-9.2952
-8.4664
-6.1068
-5.7902
-4.7454
-5.82
-10.445
-13.2292
-11.8153
-10.4613
-8.2322
-6.8916
-8.3621
-8.1905
-8.966
-9.6197
-9.4629
-6.8226
-6.0108
-9.2181
-10.0273
-10.2474
-10.1192
-12.3841
-11.8395
-8.3933
-7.6642
-7.6545
-7.3847
-8.9293
-9.3555
-7.9751
-7.897
-7.6676
-7.7655
-7.316
-5.477
-4.0079
-6.0732
-3.6466
-1.4854
-0.319
-1.3046
-4.4529
-2.9046
0.8794
2.6271
1.6402
0.3984
-1.6901
-5.1172
-5.5834
-2.9482
-0.2966
3.021
4.3229
5.7105
6.8543
6.5019
6.6982
3.5835
4.1603
6.6989
6.6097
5.5857
5.7976
5.917
5.4732
5.3394
5.1135
4.0934
5.3193
6.5731
7.597
9.3954
11.4322
11.732
11.214
11.8207
11.2955
9.9934
5.6214
4.1633
3.5348
4.1087
5.2725
5.6739
5.1063
2.8327
0.9126
0.5292
-1.072
-0.3499
-1.3304
-2.2026
0.5128
-0.6782
-0.6006
1.2142
1.784
4.9402
8.1249
9.0837
9.3756
8.8688
7.8705
6.6733
7.267
7.9713
8.3623
8.1775
9.3358
9.3205
9.9815
9.0183
8.222
7.1166
7.3343
8.0265
7.4134
4.5326
4.479
8.7317
11.0274
13.1237
13.4562
14.764
15.3016
15.1416
13.5645
12.4777
11.4509
10.0327
10.4233
10.6716
13.3505
13.8396
12.7513
13.4888
14.927
12.8705
12.8752
13.9546
15.7878
17.7133
18.2295
17.9326
15.3458
13.9995
16.2816
17.8258
15.7054
14.6615
11.4291
11.9793
12.2151
11.6417
12.4945
10.5957
9.3103
7.2305
4.0272
2.9556
4.4486
5.7042
2.5214
2.0179
3.9742
6.2287
7.2311
4.7024
1.1932
-1.7497
-2.2712
0.0894
0.0351
-0.9521
-0.6827
-0.7475
1.0668
3.5258
4.0878
7.3617
7.089
8.0431
10.5065
12.1147
13.5148
16.3706
18.2574
17.0243
15.3373
12.8486
10.5554
12.0501
13.8364
12.8388
11.4016
11.3929
9.8645
9.3112
8.3915
5.6778
3.6666
3.9791
7.2048
7.9
9.2996
10.8779
10.2196
9.4238
8.8585
8.7768
9.1794
6.4064
7.475
10.1506
11.3832
11.4158
13.2676
14.3823
12.7235
11.7873
11.3782
12.2188
16.2474
18.5995
18.369
19.5892
22.1653
22.0608
21.3762
20.8012
19.0405
18.382
20.6661
21.6111
20.9989
20.5421
20.5298
19.4882
15.2686
13.2586
14.366
15.524
15.0291
16.4305
16.5672
15.9034
13.8805
12.0006
11.017
10.97
9.6408
8.4151
8.1902
8.1383
10.9548
10.9821
10.9038
12.0042
12.5102
13.0494
13.2751
12.1764
8.2957
6.1641
4.671
5.9094
8.8981
9.8182
10.4952
11.3853
13.8362
14.5141
15.0507
13.2519
13.7565
14.9564
15.7373
14.8604
16.1294
17.8666
17.1747
15.3958
14.8605
15.3339
16.6982
18.1707
14.0437
9.7745
11.4765
12.9306
13.2734
12.3974
8.2326
5.9535
5.9215
7.9086
11.7657
12.8136
10.9452
7.6799
7.2801
9.7138
12.4954
15.0913
19.0132
20.9004
22.6528
21.4643
20.4624
21.6174
21.7433
20.6663
20.5618
22.1445
22.0719
20.1886
16.9094
15.0553
13.6623
12.5222
13.1567
13.7169
16.6654
17.6704
16.5602
14.5137
15.1085
17.063
16.9485
14.7287
12.9545
12.2963
11.4521
9.6444
11.3643
9.8766
11.2895
14.623
15.5718
13.8713
12.0948
9.8993
10.6202
13.204
14.0292
12.8192
11.9729
14.7882
18.8033
21.032
18.7625
18.1447
16.391
15.9059
15.0873
15.3049
13.1697
11.2626
10.0555
9.6372
7.7568
7.3534
9.2375
6.0463
1.3814
0.0905
-0.9952
-0.6665
2.3664
4.7757
4.702
2.5636
3.0558
5.5796
6.9896
7.6957
12.6216
16.9322
20.5216
23.7018
25.2722
26.0971
26.1358
27.6197
30.2753
30.4972
26.2715
21.7013
19.8334
17.2412
13.9187
11.6773
15.3715
15.8695
13.8697
12.9421
10.4758
8.9045
8.6083
9.4705
11.6754
12.8775
11.6472
13.3949
13.7334
13.6803
15.1509
16.0804
14.1917
13.8069
13.7449
14.2347
14.9225
15.4285
15.5603
15.9526
17.0255
16.5042
11.012
5.393
3.8379
2.4207
3.1824
5.6274
10.9566
14.7105
13.7239
12.3235
12.808
13.2989
16.5227
15.659
10.4114
10.4195
11.1276
8.6326
7.17
8.9485
10.8347
8.1233
8.838
10.605
10.6055
11.1602
11.92
10.8527
9.3223
8.0399
7.932
7.8626
8.4479
10.2185
8.6288
9.1185
13.0876
13.3854
10.2924
8.6262
11.5602
13.2565
13.5951
13.296
16.1913
17.9599
19.2164
20.5347
20.4939
19.5325
18.2093
17.4206
17.4825
18.3481
19.6567
18.9517
20.1618
20.4762
20.4774
22.9493
23.4615
23.4664
22.8836
20.7064
21.3691
22.5485
22.6017
21.543
20.055
21.174
20.3654
17.3456
18.2569
19.0298
17.4475
15.9912
17.6609
18.5117
17.4149
16.0107
15.5898
14.0142
10.1357
6.7146
5.4367
7.5691
9.1524
11.4943
12.9472
15.0268
15.1734
14.3947
14.4821
14.9711
14.2722
13.1313
13.9012
14.5233
13.153
10.4275
8.5453
8.2705
7.6539
7.7754
8.0181
7.7151
6.6448
7.1641
5.9735
7.697
11.2731
11.5623
9.5612
8.0518
8.9901
10.1998
10.6194
9.1097
9.4993
12.633
14.4758
16.7828
18.2176
18.2775
16.3358
16.812
15.6261
15.8062
16.0196
15.3596
18.5214
19.3261
15.8497
16.2542
17.6023
16.8207
17.0199
15.8907
14.3561
15.8597
16.6897
17.1295
15.5524
13.4614
10.8111
10.6117
10.3351
10.3443
10.4334
10.9009
13.6262
15.5759
12.851
10.5437
13.5275
19.7102
24.7627
26.2437
25.8608
24.2592
24.3274
26.7624
29.454
30.8921
30.6582
32.3911
33.2842
32.3771
30.1993
26.859
25.6322
25.3931
26.4921
28.286
27.8103
26.9851
22.1113
19.5521
18.1677
16.5666
12.0122
6.0128
1.355
-1.1076
-1.3084
-1.2396
-1.9523
-2.3663
-3.1627
-2.9548
-0.6505
0.7625
1.948
3.707
5.4397
8.4857
10.1476
9.9683
9.8383
11.1107
12.1644
9.8032
7.5421
11.1405
13.5128
14.11
15.4047
16.2194
15.1914
12.203
9.077
9.2346
8.2318
5.114
5.5408
4.9681
2.2007
3.9921
6.9182
9.2934
12.5292
12.2317
12.2191
13.3349
15.3086
18.074
20.3995
23.1039
26.2059
27.265
27.9276
26.7086
24.0473
23.6785
27.2709
28.4941
28.5056
28.4098
27.7952
27.4442
26.5045
24.2019
23.8943
20.6612
19.9342
20.0447
19.7648
20.9892
20.9955
19.3428
18.8951
19.8773
21.0174
21.48
21.8642
22.7619
24.0352
25.7784
28.3377
28.1226
24.7017
19.6908
16.672
16.3382
14.0217
12.3693
13.4485
13.6755
9.9505
6.1775
4.4252
3.0733
2.8357
4.9115
4.3443
2.4613
-0.6859
-2.6961
-3.4612
-1.1458
0.6635
4.2031
3.6632
2.4137
3.3278
5.4682
6.0916
6.6406
9.4483
9.7896
8.8983
9.3553
7.5123
7.7989
10.5177
11.8946
12.9076
16.9379
20.2219
19.3906
15.8506
16.2682
16.0055
12.6885
10.7363
12.8948
16.6293
17.1766
15.992
14.2046
13.0004
12.7523
11.9172
10.745
10.2916
11.8747
12.7886
13.5851
12.9504
14.5913
17.7142
19.6437
24.5968
28.528
30.7735
32.5023
30.6751
28.9407
31.0333
32.5834
34.7102
38.1413
37.0942
36.9155
38.0566
41.2729
37.9294
34.7958
36.7304
36.1552
35.9237
32.7796
30.4578
29.8319
31.2036
30.9131
29.9648
27.7043
23.5113
20.2508
17.5086
17.5098
17.4435
17.4085
15.4807
12.4353
9.4397
6.5207
7.3939
6.0831
6.3869
8.1105
6.7121
5.9528
6.2268
4.0822
3.6378
2.0912
3.3453
8.216
12.6121
12.5471
10.9972
9.1522
8.5821
9.5035
11.1815
11.364
14.1275
17.603
16.1274
12.8083
9.6163
9.9067
11.7535
12.2449
14.0321
18.3989
22.7228
21.086
17.866
14.0805
10.3483
10.1314
10.2158
12.2283
10.9096
9.0751
5.8948
3.5934
3.6475
7.6789
5.9485
0.8174
1.5989
3.4083
5.2977
6.8537
6.5391
5.2694
5.5455
6.5074
4.992
1.7866
1.1547
5.9748
8.6793
9.3941
14.8367
21.0783
23.6695
24.8368
26.427
28.2316
28.8682
28.8868
26.4155
22.6384
22.557
21.9496
23.1664
24.9091
26.776
28.3774
30.1394
30.7758
30.8273
29.1034
27.2151
25.7199
24.9623
22.2927
21.6451
21.3232
20.8611
20.4769
21.2816
20.5709
19.2836
16.1474
14.4994
13.6541
12.1263
13.1581
16.3035
17.8043
15.5842
17.2752
19.5982
20.0405
21.2968
21.1972
18.4176
16.497
14.6871
14.3082
15.4759
13.6166
12.0504
12.1493
12.4722
11.6984
10.1399
8.5081
8.3769
6.6681
6.8026
9.2273
11.2054
11.6499
13.5325
12.2428
9.8979
7.9488
7.5511
9.8185
14.8605
17.1442
16.0689
16.1627
16.0043
14.4318
11.3673
12.5435
15.7298
18.7829
20.7314
23.1215
24.2646
22.5956
21.0056
20.1719
17.5674
18.8463
20.8802
22.3193
22.4015
19.8984
19.7153
20.9351
23.4011
23.8161
23.6876
25.073
24.3874
26.3411
28.6719
27.3677
25.7906
25.7202
23.7751
25.0814
26.9461
27.5931
26.0503
22.9292
23.2146
24.3353
24.5921
21.3551
19.0433
18.8994
18.4845
19.6426
21.1467
23.7784
26.1822
26.6947
26.9685
28.7669
31.8021
31.399
29.8662
28.8831
27.977
29.185
29.5658
27.027
25.7615
24.6603
26.127
26.8741
26.5126
28.5789
30.3655
28.1718
26.3765
24.6637
23.8407
20.1754
16.4738
13.0121
8.8617
6.8905
9.8468
10.9138
10.8296
9.998
7.4589
5.9617
4.3739
3.936
3.758
4.1078
3.2846
0.1583
-0.1231
2.9248
4.6941
3.5315
5.6186
7.303
7.7564
6.9182
3.5608
4.1469
5.863
5.5926
7.2072
11.1248
11.1978
11.261
11.5482
12.0846
12.7481
10.8386
6.5572
3.4021
0.4273
-1.0352
1.0179
3.5745
2.0443
0.8154
3.0143
5.7514
7.0323
8.8126
10.1555
11.1902
11.1048
14.2551
19.644
24.4999
27.5044
26.8414
26.245
26.7613
28.4207
28.3606
28.5362
28.2749
28.9276
31.748
33.3097
33.8257
35.4131
32.416
28.7313
29.1326
26.6265
23.6059
24.0872
24.8012
24.4583
21.9296
18.3826
19.1341
20.4911
19.1677
18.5413
19.6915
21.0801
21.9868
21.8769
23.0812
22.1551
20.0772
19.683
20.1762
21.9952
22.4745
22.0406
21.4826
18.9539
17.9959
19.3046
21.3526
21.5953
20.042
18.2968
16.4789
16.0573
16.4766
16.5251
18.7634
20.5216
22.0695
21.0362
15.4342
10.8366
6.1343
3.7921
3.3138
3.4979
4.5345
4.3052
5.8471
6.3383
7.2586
5.0396
4.9218
7.357
9.4194
6.6897
4.372
4.2559
3.6644
4.9565
4.9033
2.6272
2.2921
-0.1044
0.6576
3.2339
4.1803
6.8726
8.7808
6.9816
6.5342
7.0127
9.0702
12.1769
12.0774
10.7644
10.0322
11.7797
12.3014
12.6936
13.3329
11.1416
11.1995
10.1745
8.6047
8.5415
6.8603
6.3201
5.4927
4.6283
4.3963
4.5787
9.0903
12.428
11.3432
8.6174
7.8408
9.8002
11.1627
11.0572
11.1987
5.8945
1.5032
1.8335
3.4001
4.1927
4.2446
5.1467
7.9375
6.999
6.9446
7.5121
6.8992
6.0969
7.0775
8.8567
9.7546
8.8802
3.6951
1.6869
5.218
6.363
4.0448
3.752
5.1866
7.1596
10.067
12.6873
13.258
11.4297
10.0872
10.6344
11.0803
9.5545
6.5352
5.7672
2.8304
0.9423
0.2304
-1.1126
-0.1401
0.5492
1.7165
2.7031
1.9106
-1.3158
-4.2195
-7.003
-7.3796
-7.2248
-10.0565
-12.1522
-13.4193
-15.4908
-17.83
-16.7423
-15.0185
-11.8205
-9.2323
-6.5357
-3.3494
-1.7596
0.5154
1.4704
0.6127
1.799
4.8863
4.3242
3.3637
3.0154
3.0075
6.3076
9.4159
14.1729
16.1061
13.2229
12.0425
12.5525
12.3838
9.1295
7.4077
9.5826
10.7752
9.5747
5.9911
4.25
4.1094
2.8429
-0.1908
-0.5573
-0.2419
-1.1828
-1.7414
-2.6941
-4.9558
-3.3579
-2.0995
-2.0898
-2.3608
-1.8623
-3.0835
-5.3512
-6.1441
-2.6738
-2.0087
-2.7015
-1.0083
0.8077
0.6736
2.1735
4.6857
6.6206
7.1138
8.8625
11.5613
14.7453
14.2209
9.8717
8.5255
14.4294
18.2701
19.3706
18.0602
15.453
15.0429
17.0237
18.9215
17.8505
14.081
9.7591
9.954
10.0883
5.8771
4.9502
6.687
9.2526
9.012
6.9218
6.6854
6.8389
6.8763
8.543
6.9695
5.2497
3.8758
4.5718
5.5518
3.1547
3.4235
2.6918
-1.0769
-6.9067
-10.9037
-11.4192
-11.0332
-9.5172
-7.468
-5.6312
-5.2773
-2.9781
-0.3281
-1.3072
-0.7162
0.5874
0.6144
0.69
1.7547
3.1459
5.0892
6.8229
8.3168
7.7844
5.9248
4.8717
-0.8283
0.4443
4.9957
6.195
9.3353
13.6161
14.7357
14.9283
13.5501
14.5919
16.2723
14.5086
13.6622
11.8499
8.8546
6.9872
5.7544
1.3102
-0.7011
0.8904
2.4453
2.3502
1.9569
2.0918
4.8038
8.6631
8.634
4.3607
2.1934
3.5322
0.6273
-1.8581
-1.377
-0.5921
0.2088
2.1147
4.5006
8.6292
9.5117
7.993
8.5829
12.152
15.1122
14.2394
13.4873
10.4277
4.5461
-0.0859
0.7819
2.4573
2.3752
1.5781
3.2436
4.9235
1.8156
-0.3591
-0.735
-2.7785
-2.5865
0.993
4.3298
7.4065
11.5104
12.4312
9.9749
6.0387
3.8421
5.4798
7.1897
7.1656
7.8391
10.7372
10.5353
7.2841
8.8178
10.5765
10.7235
10.2931
9.5925
8.736
10.2564
10.5095
6.9253
5.6611
5.3187
5.4693
6.8622
8.5828
7.8532
4.6321
2.4828
1.9365
5.6216
7.5197
10.0246
12.404
11.9874
11.4556
11.1108
9.1511
5.2717
3.8078
5.9494
9.2826
10.5083
13.021
16.017
12.7044
12.6443
12.6923
12.3414
11.7487
11.9364
10.5692
9.1111
8.755
6.4288
6.5706
10.0016
8.636
8.5094
9.5801
12.5345
10.8252
7.5477
7.0741
5.032
3.483
1.113
-1.1276
-2.3014
-4.2578
-3.3436
0.6004
2.8854
2.516
0.2338
0.2644
0.7344
4.4396
6.3546
5.844
6.2597
10.2729
15.3204
15.2235
12.6718
9.339
9.4444
11.1507
9.9391
9.367
11.0121
9.9351
11.1943
13.8415
15.0283
14.0522
13.9905
16.8542
18.437
15.9107
14.5096
14.7487
14.9927
13.5482
11.025
8.1569
6.5416
3.0533
-1.8959
-2.3437
-0.1458
2.8361
6.0932
10.179
14.5353
18.6993
19.9055
21.6248
23.441
23.7134
22.4424
19.9989
19.1531
17.4312
17.3659
17.7759
17.2385
17.1367
16.8164
17.729
15.6451
13.74
12.3465
12.1565
11.7878
13.1113
10.27
7.0205
6.7861
6.7703
4.3514
1.814
-0.1724
-2.2113
-4.6464
-4.6349
-5.2253
-4.0465
-2.4821
-0.1313
-0.5098
-1.5551
-0.4299
-1.4967
-3.6411
-2.033
0.8309
1.9469
4.4394
9.9668
10.8839
11.6531
15.6645
20.0684
22.8377
23.3462
23.2608
19.3372
16.5458
16.9772
17.0925
16.9233
17.0402
19.5853
22.0325
25.0083
26.4528
25.6714
20.7894
18.8606
19.3468
20.6989
23.1702
24.3213
23.3205
22.5899
22.9218
23.2355
21.0552
20.5866
20.1875
17.1239
12.4712
10.844
12.3719
10.2109
8.7999
9.0603
9.3374
7.8423
4.8417
3.2662
5.61
5.1378
3.9641
1.6359
-0.8468
-2.3401
-1.1954
0.2732
1.0236
4.2437
4.8325
5.6289
8.4954
9.3417
9.3302
9.8351
10.4978
10.9104
12.0783
10.8545
10.0948
7.1755
7.4025
10.0283
11.1729
12.5793
14.2263
16.42
12.5882
8.2191
11.6711
18.083
22.1358
25.6561
26.5336
21.106
18.7827
16.8378
14.4549
13.824
9.0001
4.7813
5.8882
5.5241
6.1318
8.8765
9.4247
9.3887
9.9184
12.3555
15.7428
17.6999
14.8931
11.6914
10.4434
10.0377
7.4155
4.0181
4.8111
5.8562
5.5443
1.1702
-0.9414
1.2599
-1.1064
-1.9209
-0.2353
1.4266
0.7159
1.3685
2.7442
4.5131
3.8298
2.9149
4.9237
7.1166
5.7984
3.4178
3.2099
6.6245
8.6575
8.193
6.8847
7.114
6.2396
4.2361
1.7088
4.1879
6.2882
6.2427
4.584
3.6782
5.8497
8.6249
9.928
10.6648
14.1142
16.0282
16.3075
18.7226
16.9052
14.9938
16.2822
18.973
19.2847
18.4055
16.777
15.0226
16.8166
18.891
18.1504
15.4133
14.7923
16.5315
16.5698
12.5192
9.1442
10.4577
14.4305
17.0325
18.1967
18.9068
18.9107
20.3651
20.5822
14.6166
11.9784
13.2621
12.8979
12.8934
13.9794
11.8737
8.5919
8.9279
10.55
9.3836
9.087
6.8324
0.7206
-1.4332
-0.7457
-0.4517
-1.4499
-1.2017
0.3915
0.8863
0.669
-0.3908
-0.8117
0.6216
1.7605
2.7239
3.2238
0.9116
-3.6608
-6.8762
-5.3952
-4.2362
1.4062
5.5948
9.0977
12.4478
15.1389
21.3322
25.4374
23.0139
21.7081
20.9834
19.1834
21.9935
21.5556
17.397
16.6174
15.9347
16.6409
18.9225
19.4888
16.3746
14.462
14.9242
12.5018
11.7624
11.8222
7.713
5.3486
2.4778
-0.6711
-0.5985
-0.8734
-5.2272
-7.0822
-8.5267
-8.3271
-10.0626
-11.6676
-13.8164
-11.6294
-6.4066
-1.4983
3.275
5.0952
6.9764
9.8763
13.0669
14.1318
13.0715
12.1892
12.9977
14.4952
12.9635
12.5439
16.7521
20.1415
20.901
21.4378
21.9854
21.7539
26.5128
30.1783
26.3947
25.8731
26.8377
27.366
28.2673
26.9912
27.3278
25.9457
24.7179
27.1285
28.1914
29.147
29.4477
28.2793
28.1544
27.2635
24.5299
24.2412
22.7186
22.3702
20.0584
19.9065
22.1318
25.421
26.9446
27.7956
27.5083
25.8097
22.8255
17.7147
14.645
9.2493
6.137
5.6387
5.3806
9.8738
14.2294
14.2954
13.7784
11.4785
10.8071
12.2267
9.7511
8.4988
9.713
11.1341
10.6324
10.2141
13.5229
14.5431
13.7417
15.5731
16.4017
14.0882
12.9708
11.6762
8.6505
8.6388
9.8316
9.2689
6.8396
6.755
7.7072
6.4887
7.3139
12.0885
16.4267
17.387
15.0
10.6584
7.9473
8.6008
9.3332
7.883
9.1832
11.5378
12.4518
10.8718
8.6846
8.7929
12.7246
12.5746
6.8558
5.2788
6.0143
3.9663
0.3962
1.4656
4.2399
7.0786
9.969
12.0662
12.8787
15.2656
16.3389
13.2223
8.8697
8.0753
8.8006
7.4587
7.6306
10.3007
12.1025
14.3823
16.0859
17.8664
16.4966
12.9811
9.9875
12.6776
15.2731
13.9218
16.6845
21.4533
19.5895
16.5898
15.8562
16.468
16.7397
16.0054
17.4631
18.682
17.0489
14.5842
15.1224
14.8912
13.0861
11.3738
9.172
8.7361
9.8592
10.6411
9.8138
10.9414
11.209
10.6815
12.1508
16.5912
17.8744
14.2458
7.3239
4.3797
3.3345
6.605
8.7325
7.049
5.551
4.1359
5.5382
7.9274
10.1536
10.3837
6.0178
3.5364
8.1365
11.7119
11.7167
14.7363
16.5389
15.2259
13.7877
15.3763
15.6744
16.4616
15.6042
15.3969
18.9968
21.8807
24.2681
26.1767
26.287
28.1701
31.8444
31.9194
31.1183
29.2588
26.3777
24.8317
24.7299
26.6722
29.6823
27.9288
28.3254
30.3453
30.9568
28.5939
26.047
22.9042
21.2386
22.3399
22.1388
20.5613
21.9164
24.7894
25.1838
26.2665
29.3771
28.1659
24.0345
20.9133
17.7915
15.9548
16.405
16.808
18.0547
20.2025
20.2802
20.348
18.3988
16.1586
11.5914
10.327
11.1214
12.1817
10.9253
9.2941
5.7957
2.283
3.3685
2.2999
1.9401
1.4278
2.0236
4.6434
7.8258
8.7449
10.892
11.8779
15.6638
17.0418
17.6184
17.9236
19.4387
20.7705
20.7749
22.0934
25.1109
26.6828
24.4385
21.4299
22.6011
23.1146
21.5777
21.0106
21.4861
20.0155
17.5968
16.2471
12.9057
10.2593
7.9961
5.089
2.6394
2.4161
3.2801
9.5981
13.8936
15.2802
16.4101
17.7027
17.3287
17.0635
13.0022
8.6029
6.385
4.3349
5.0419
7.1446
7.1011
6.907
6.3106
5.3074
5.883
6.6423
7.9971
12.3363
15.491
18.2528
18.3378
15.369
14.5413
15.2716
13.6478
9.9182
6.6783
8.9238
10.6621
10.7036
9.8702
11.4233
15.565
18.636
19.3929
19.7705
21.0891
23.2324
20.6922
15.7012
17.8549
21.056
23.8007
21.5603
18.5567
18.4836
18.5337
18.0568
17.6249
15.2481
14.3891
15.0105
14.3618
13.6437
12.5474
12.9404
14.5672
17.5298
17.8939
19.2287
22.0123
25.2945
27.3567
24.9482
24.1392
24.38
23.9442
23.9911
27.8717
29.6055
25.4769
21.1413
21.5885
24.2823
27.2745
29.7009
30.8752
31.8328
31.4967
29.8639
31.7534
31.331
31.7287
29.5693
25.6418
22.9769
19.0936
17.3509
18.1021
20.6351
22.6278
21.4057
18.3957
16.5153
19.3353
22.2924
23.2819
23.2632
24.4278
23.1807
19.4413
19.0812
16.1089
14.3973
15.9364
14.8289
14.8767
14.0675
12.633
11.2559
10.7485
11.1057
10.3121
8.4078
5.2426
5.6926
4.9218
6.1202
10.7662
11.3255
10.2983
9.6405
10.5515
11.4938
11.3915
14.2295
16.7398
16.7917
15.054
13.6842
10.5796
9.6158
11.156
9.3903
9.4338
8.742
7.8247
6.3818
4.3041
4.3046
6.8097
7.5161
7.9154
7.8076
7.1222
5.4531
5.6405
3.8493
3.4962
4.8262
6.0415
7.5392
8.2695
8.0287
6.5245
2.3823
-0.0022
-1.549
-3.9739
-5.4193
-7.4002
-9.1179
-8.2781
-7.3158
-9.2357
-12.31
-10.3017
-7.219
-4.975
-0.7551
1.7732
0.4326
-1.713
-7.5319
-11.3403
-9.4128
-10.2047
-11.7499
-11.2442
-11.0492
-9.4111
-10.0204
-7.7812
-0.3291
2.7969
3.4212
3.2805
3.8569
5.9632
7.0993
3.0214
0.156
1.1093
1.6792
0.4634
0.7937
0.888
-1.3467
-4.2923
-3.9879
-2.3014
-2.1278
-0.7114
1.4777
3.1466
5.3888
7.3241
8.1398
8.8521
8.4764
4.6553
1.7212
2.4066
0.8732
0.0096
-0.8366
0.2328
2.8007
5.9705
4.9771
6.1817
12.3662
15.8429
16.9552
17.003
14.0728
10.035
9.5516
12.3153
13.8214
14.8727
14.2254
12.3624
14.2665
13.5794
13.1619
17.1427
21.2788
24.7778
25.3791
24.5971
23.9572
23.8959
25.3153
27.0491
24.7856
22.5057
21.214
18.8054
16.0831
14.6803
15.5259
16.5868
20.1552
23.3194
25.8556
25.9013
21.8449
19.81
18.3061
14.3729
11.3309
10.5095
10.5674
9.3468
9.8967
13.3478
16.5792
19.9364
23.9586
25.4098
27.6106
26.7245
23.8099
22.1524
21.6377
20.665
20.8095
19.7316
17.8387
16.7607
12.3208
8.5571
9.4303
10.6039
8.9787
6.8922
5.1228
5.7168
5.8464
3.9601
1.5696
1.2621
3.8714
5.078
3.4932
1.3337
-2.3713
-5.9017
-5.4885
-4.7277
0.0691
6.7896
10.2033
13.2101
13.8895
13.82
13.3939
11.2617
10.2033
11.7344
10.549
8.5988
7.7261
10.0071
14.0602
16.9375
16.4774
14.2461
13.0847
11.2143
8.3812
6.4473
5.1545
3.126
4.2603
4.8415
3.0676
-0.663
-2.5666
-2.4702
-2.066
-3.0829
-5.0405
-5.7881
-5.5408
-6.7439
-4.2757
0.2701
3.3121
4.2055
5.9947
10.3881
12.4429
12.301
12.0787
10.0448
8.9201
8.5472
9.2195
8.8558
6.7575
7.2365
8.195
8.9483
10.4533
12.9544
15.3992
15.4019
13.6168
13.8336
15.1017
12.8772
9.0475
6.9005
3.6422
3.2563
3.4402
2.5976
4.2995
5.7977
3.929
2.595
1.306
-1.0277
-0.0625
2.0428
0.6792
1.1054
1.9677
-0.5771
-0.4209
2.743
4.7891
4.5034
4.3458
5.1057
5.1092
2.8255
0.9912
1.0678
0.4595
1.3433
1.2678
-0.7396
-0.8023
0.9331
0.3349
1.359
1.74
1.3703
1.6659
5.9256
5.8832
4.5741
5.3137
7.8579
9.3812
8.1929
9.3315
10.0144
9.5293
6.8235
3.1202
-0.5407
-2.3629
-1.9684
-0.2732
-0.9969
-1.9513
-1.5423
2.3281
7.2539
5.4375
2.1878
-2.0899
-3.5768
-1.4486
2.6428
0.9686
-1.614
-0.8157
2.0965
4.7005
6.887
8.3952
7.5869
3.1522
0.9293
1.3922
2.001
2.7852
4.3012
3.5974
3.4215
6.288
5.1304
2.3862
0.1079
0.23
-2.268
-5.2143
-6.0395
-4.9843
-5.7218
-7.2498
-7.688
-6.574
-4.9012
-4.2733
-6.6407
-6.0342
-4.2619
-3.4501
-1.636
1.5821
1.3155
0.4886
0.5384
1.2295
2.1515
2.8888
1.1743
1.2606
2.5438
5.2871
5.5638
5.4738
4.3812
2.7483
1.1068
0.6029
2.6294
5.6277
5.1073
5.2783
8.7509
9.4776
9.652
11.881
13.897
13.0284
13.3469
15.2032
15.651
12.4673
7.0914
6.0909
5.3613
4.8488
6.945
7.4982
7.722
7.4234
7.2413
7.885
8.0842
6.1555
6.9614
9.7819
11.2925
8.3941
5.2509
4.9208
5.0252
6.4391
9.55
8.3692
7.374
6.5069
2.1897
-2.4625
-2.29
-3.3197
-3.778
-4.5652
-5.2143
-1.2652
0.6229
0.3399
3.5566
5.7819
3.8589
4.1139
5.6144
7.1844
8.5663
9.9771
10.6136
8.9923
7.5724
5.4386
4.5418
3.6179
3.3718
4.062
3.7037
3.407
4.7002
5.8227
6.4722
9.4156
12.9007
11.268
9.0478
9.9417
7.9661
4.5866
3.9828
7.3218
8.3618
9.0829
11.0049
11.8527
11.6171
11.2043
13.9444
14.1188
11.4822
9.74
5.5161
0.8586
-1.6552
-2.4408
-1.8244
-3.3195
-3.7569
-5.087
-5.0148
-4.9039
-6.3665
-6.1496
-3.4133
-3.7335
-8.0138
-10.506
-7.9769
-8.0869
-7.916
-7.8884
-9.4697
-12.482
-12.9235
-10.1422
-8.7383
-5.8013
-4.6437
-4.0271
-2.1506
-1.3591
-3.1118
-4.2436
-5.3589
-7.1883
-8.5295
-10.4312
-11.0094
-12.1473
-12.645
-12.4794
-11.5794
-5.7758
-4.7339
-7.9614
-9.5796
-9.8934
-10.7049
-11.0787
-9.6739
-12.1844
-15.1256
-15.4191
-15.9814
-13.3916
-12.5362
-14.8827
-13.7337
-11.1058
-11.7492
-12.8115
-11.4307
-11.3723
-12.2749
-10.2995
-9.455
-11.5591
-11.4742
-14.5061
-15.2263
-13.6311
-11.5705
-10.195
-9.7485
-10.9767
-10.9646
-10.2162
-11.9893
-13.3974
-14.1491
-15.8968
-15.611
-12.2978
-9.9577
-13.691
-15.1052
-12.1803
-11.1297
-12.7422
-12.4238
-12.0912
-11.8925
-10.8727
-8.421
-7.9466
-6.4009
-3.7063
-3.2736
-3.1108
-4.0131
-6.6014
-8.4363
-9.567
-8.4737
-6.352
-6.1892
-7.9877
-7.3803
-8.0373
-8.7451
-7.5078
-6.8331
-6.7155
-5.0592
-5.2188
-7.7761
-9.4696
-12.5637
-16.7594
-19.1632
-17.1155
-14.7194
-12.7009
-11.109
-11.2946
-12.5031
-14.9811
-19.7056
-20.6027
-15.8223
-11.4697
-8.1639
-5.9735
-3.271
-4.0887
-7.7911
-6.094
-5.9402
-7.9362
-10.3591
-12.4655
-9.8481
-6.9299
-6.0455
-7.6519
-10.1805
-10.7194
-10.1455
-10.8619
-13.6283
-16.0568
-14.9479
-12.4904
-10.2129
-9.6745
-11.4083
-12.0495
-11.4149
-10.0788
-10.4468
-7.8999
-5.0053
-5.0646
-5.2839
-7.022
-9.9836
-8.2403
-8.2838
-10.1514
-11.7019
-12.1687
-8.4643
-5.4497
-6.9183
-7.6145
-8.3893
-11.8785
-10.4551
-6.789
-6.6285
-8.9352
-9.821
-9.6975
-7.0148
-6.2078
-7.5794
-5.4992
-3.3255
-5.3153
-9.8051
-12.4382
-13.5679
-12.8215
-13.6112
-13.6759
-11.866
-10.1938
-10.3398
-13.1737
-13.1523
-11.7004
-13.8682
-12.809
-9.602
-8.1336
-8.1415
-7.7626
-9.2549
-13.1006
-12.663
-8.6581
-7.2717
-7.6527
-7.1766
-4.6088
-3.0937
-5.7795
-8.13
-10.6981
-8.4782
-5.1265
-3.4788
-6.768
-8.8141
-8.5464
-8.8996
-7.0684
-4.033
-6.4648
-11.2246
-12.4053
-12.7296
-11.1746
-10.1388
-13.7869
-15.6669
-14.2478
-13.2881
-13.2759
-9.3748
-4.2191
-1.209
-2.8382
-5.3515
-3.1516
0.214
-1.2552
-1.7898
-4.384
-10.3451
-10.267
-11.5722
-14.019
-13.5714
-13.0526
-13.3921
-14.3209
-16.7214
-16.7744
-12.7047
-8.7918
-7.7187
-8.8343
-10.0588
-10.0809
-9.6976
-9.9271
-8.2991
-7.1827
-7.5838
-8.7581
-10.9157
-10.7351
-8.6691
-7.7639
-7.1932
-9.3321
-4.9796
-3.3941
-5.4478
-6.8155
-5.1043
-2.9585
-0.3526
0.9886
0.8302
-0.7491
-2.7952
-4.8264
-7.8737
-5.8805
-3.2664
-3.3552
-4.7144
-5.1217
-3.9833
-4.3263
-3.4593
-2.9389
-2.0252
-0.4007
-0.6942
-1.8277
-0.8695
-1.1765
-1.8018
-6.4553
-9.644
-10.4551
-10.1625
-12.1984
-11.631
-9.1031
-8.7475
-8.3488
-9.8786
-14.716
-16.7753
-16.9572
-16.3316
-16.467
-18.4504
-18.0015
-16.2314
-15.2144
-12.4893
-11.0348
-9.7727
-7.6789
-7.2592
-5.4431
-1.0425
0.568
-0.2562
-0.2737
-2.4847
-5.5582
-5.879
-6.2837
-7.2975
-7.7473
-5.6334
-4.9184
-8.889
-14.298
-16.6024
-15.2796
-12.3122
-11.4823
-11.4963
-12.9527
-13.3119
-11.634
-11.95
-13.5467
-14.8696
-17.1618
-19.7428
-18.6356
-19.3323
-18.8925
-15.5326
-13.1845
-14.1891
-12.5885
-8.9959
-6.1811
-6.371
-3.5228
-1.2609
-0.9818
-0.6401
0.6752
1.7958
-1.0832
-4.8704
-8.8503
-10.7923
-9.7209
-11.8416
-12.0802
-11.026
-12.05
-12.5566
-12.3074
-10.9323
-9.1653
-7.3719
-11.9774
-15.9702
-16.0833
-18.0522
-19.3497
-20.1172
-21.984
-23.6161
-25.2923
-22.9878
-20.0921
-17.0795
-17.7802
-18.2933
-17.8334
-20.1174
-18.441
-14.0445
-13.7117
-14.9464
-15.2217
-12.5921
-8.8002
-8.4738
-6.7535
-4.5342
-7.6973
-8.7402
-6.9043
-7.8233
-7.7719
-4.4959
-3.4142
-4.4313
-5.3579
-5.4268
-6.9503
-9.3567
-9.0327
-12.1679
-15.2138
-14.9519
-11.8202
-10.3932
-11.0676
-14.771
-14.4481
-13.3908
-12.1184
-11.3005
-12.7392
-15.0426
-16.2791
-15.3993
-16.1361
-14.656
-11.3856
-11.3887
-10.593
-11.7609
-11.7887
-9.952
-7.8607
-4.3261
-5.1357
-5.3174
-2.9363
-2.9039
-4.0903
-6.7193
-5.2408
-1.599
-0.636
0.1217
1.8567
4.1542
6.7404
7.3248
2.2922
0.7637
2.4023
3.5804
4.684
4.2119
1.8076
2.1372
1.2893
-5.1109
-10.7173
-13.6938
-15.7199
-14.5634
-12.1977
-10.3516
-9.765
-11.41
-12.1464
-13.5493
-16.3324
-17.6332
-17.8343
-16.0003
-11.3798
-3.7023
2.6501
4.0691
4.8447
5.8609
3.4452
1.3517
2.1751
3.0897
1.6929
3.0109
5.3345
5.5082
4.3764
3.1955
1.9618
2.4819
-0.0166
-2.7833
-2.5324
-2.7923
-3.9849
-5.6853
-5.5742
-8.112
-10.0564
-9.7456
-9.4977
-8.2651
-7.0599
-8.5891
-11.2494
-13.3468
-15.3991
-16.5298
-17.2771
-17.5152
-17.7372
-18.4168
-19.478
-22.871
-24.7526
-25.7877
-25.2924
-22.0872
-19.576
-22.2568
-24.2043
-22.957
-22.5823
-23.7378
-21.4704
-17.3274
-11.5071
-8.4055
-7.3188
-8.59
-12.3931
-14.7544
-13.0551
-7.6604
-1.9899
1.916
4.0686
7.9589
11.323
12.0916
10.7957
8.8059
7.577
2.9897
0.2525
4.2329
4.1312
2.0032
1.7354
2.2905
2.2622
2.5586
1.4865
-0.1961
-3.4839
-5.1712
-2.9823
-0.4029
1.1935
3.2594
4.6642
5.6262
3.6803
1.5031
1.5674
1.2512
0.5798
0.1707
-2.2068
-3.2994
-2.8263
-4.9434
-5.8636
-5.5323
-5.2658
-3.6944
-2.1841
-4.5392
-8.2955
-9.1713
-9.8331
-8.2003
-5.9982
-3.8422
-2.9248
-1.0646
-0.7023
-1.3779
-1.6736
-0.6352
3.6717
5.2371
6.1289
8.4446
10.0795
10.0243
9.4605
6.7968
3.6107
2.0673
2.0296
4.2132
8.0883
9.2257
6.8951
5.1715
6.5707
9.4414
8.931
8.2098
9.1602
8.223
4.7285
0.9678
0.9341
2.3579
0.4418
-1.2897
1.0686
5.1754
10.3432
12.6844
10.81
7.8857
3.8179
4.72
7.2989
10.2193
12.6981
13.0244
10.9876
9.7381
8.6519
11.2682
13.2484
14.892
14.836
12.8552
11.7015
9.8934
7.776
6.197
5.0077
5.6251
6.0312
5.1734
5.3821
5.2083
6.136
6.941
4.4119
2.2037
3.4036
5.9383
8.5447
10.0632
13.3404
14.5095
12.44
12.4092
8.2541
6.7988
10.0523
12.1949
12.8599
16.2106
17.2324
12.5489
7.9259
4.5662
6.8819
9.7973
9.3606
10.6308
11.6903
14.7152
14.6092
13.2515
10.61
7.8159
6.6719
6.608
6.9944
9.6554
12.3732
13.7885
16.577
17.9385
16.3008
11.9614
13.5577
14.6466
12.5219
12.4036
13.1358
11.8747
10.4667
10.038
11.3314
10.5479
8.4276
4.7975
0.2485
-2.1209
1.4585
4.2239
5.3644
7.5908
7.3546
5.8866
7.3992
8.2078
4.3276
3.2993
4.4164
3.0721
1.5707
1.6975
3.2247
5.3071
3.7882
3.6717
6.6035
7.6585
7.2959
7.1471
9.4359
10.3358
11.0631
9.7349
8.6262
8.4921
9.9539
11.0602
10.3354
9.442
9.451
8.4916
5.8063
6.3669
6.9444
6.366
7.5562
7.3372
5.0004
3.5698
3.7431
5.0113
6.2253
5.3041
6.1059
9.4478
10.0349
9.6674
10.7662
11.2868
10.3362
10.0231
11.4758
13.6912
14.3643
15.1091
13.7471
11.8857
14.2612
16.2842
17.6603
17.849
16.1935
11.8324
7.3534
4.3761
3.8811
4.5542
10.3109
15.5092
20.2265
22.0063
22.2985
21.5174
18.2098
16.1772
15.201
12.9455
9.3225
5.9207
4.8137
3.5458
1.1665
-0.4731
-0.6648
1.0814
0.6076
-3.6216
-9.5435
-9.3107
-5.2276
-5.7162
-4.5602
-0.3824
-0.4813
-3.4793
-8.2638
-9.6025
-7.2969
-3.9594
0.0349
1.8517
5.6315
6.8802
7.7576
6.4751
1.9155
0.2395
1.6364
3.4321
3.2381
1.6821
-0.4648
-1.1023
-1.8515
-3.8381
-4.3873
-3.9369
-2.112
1.315
4.4416
4.4957
5.0156
6.7743
9.066
10.1532
6.9926
6.3221
5.621
2.6663
1.086
0.7267
-0.4596
-0.5597
1.689
3.6961
2.6828
2.0661
-1.3373
-4.5166
-5.2241
-4.5334
-5.9567
-8.4013
-4.995
-1.4758
-0.6036
0.2324
-0.2829
-2.3435
-4.2525
-4.3623
-5.7539
-4.5835
-2.5185
-1.6877
-1.6043
-2.0542
-0.0128
0.5789
0.04
2.4561
7.058
10.1999
14.129
16.2025
17.5012
17.3337
15.6512
16.9416
16.6656
13.1318
14.4746
17.942
18.9349
15.9442
14.4039
16.2791
17.7956
17.0453
17.018
18.3428
17.6067
16.2976
13.6087
11.9421
10.6591
8.8993
9.2195
9.8727
11.3382
9.6429
6.7729
4.5917
6.3635
9.3641
9.8795
9.5896
9.2632
9.9416
9.0751
10.5988
15.0882
21.2602
24.0822
25.2508
24.4222
24.1695
26.0091
26.666
27.612
25.9435
22.8137
19.0682
16.9749
16.0213
13.7005
11.0582
11.1782
6.3304
1.6796
1.7319
3.3459
6.0327
6.1329
6.2959
8.7304
13.4736
14.7621
10.6572
7.4831
8.402
8.3465
9.9507
9.4474
7.8968
7.2493
4.7144
3.8125
5.3961
8.3824
7.8196
5.4735
5.4202
6.2357
5.8373
5.8389
8.1213
6.3031
3.5536
5.3131
10.7561
14.1401
15.9236
20.3054
23.3653
22.7488
20.4963
19.2629
16.7514
15.0662
11.3691
8.5684
5.8132
4.0347
3.2815
1.1682
-2.0631
-3.9498
-4.6389
-5.4139
-3.2086
-2.1208
-2.3695
-2.7665
-1.4932
-0.7847
-0.96
-1.0443
-1.2128
-0.8344
2.4345
3.8079
1.4449
-0.8617
0.9882
2.1808
1.7069
2.8821
6.136
13.2434
16.3997
15.69
12.3108
10.6206
11.8159
14.993
17.0395
20.0053
22.9187
22.2899
18.2219
15.913
17.8455
21.5992
25.0846
26.0027
25.8077
27.8375
32.3041
34.9877
33.5603
32.0159
31.3651
31.8169
31.1099
31.9007
32.314
30.4925
29.5761
30.6475
31.9034
31.1554
30.0372
32.8984
34.4169
33.5345
31.2473
31.0935
29.1898
25.6368
23.1522
20.5069
20.5407
18.3797
16.4567
16.4063
15.5022
15.0857
15.0102
12.4963
8.8521
6.2644
4.1644
5.1237
6.0804
2.5293
-0.8311
-0.1956
-1.3528
-2.7062
-3.6567
-4.1472
-8.1099
-10.9488
-9.9004
-8.2983
-9.8188
-10.2105
-7.1169
-2.6471
-0.9117
0.4436
2.2115
3.0667
1.4914
-1.0534
-0.9173
0.4566
1.2927
1.1736
-0.1734
-0.2349
1.9379
5.3252
5.3402
4.6938
6.8047
11.5844
14.2361
14.9018
18.1779
19.6077
22.1464
24.4992
28.1409
31.615
33.8467
33.3567
32.6684
31.3353
31.893
33.0526
32.0698
34.1532
35.0437
35.3933
36.072
37.1143
40.1071
41.7289
40.9502
38.8191
37.5428
38.388
35.2323
31.3121
31.1111
32.4039
31.5611
29.7656
26.8277
24.455
23.4811
26.4112
28.2551
25.7432
24.6336
24.747
22.9982
22.4073
25.8035
27.7313
28.2723
30.2657
31.1784
30.0417
29.3387
28.7169
29.2187
28.3789
25.1463
23.3025
20.3461
16.8296
14.0319
12.1893
11.5483
8.851
5.8565
4.1806
2.3454
1.4393
-1.9502
-4.9725
-3.8909
-1.5044
0.9716
5.2567
7.2855
7.3425
7.6017
5.3372
3.6319
5.3216
7.6193
9.6231
10.5745
8.1373
5.1606
6.9389
11.6775
14.437
15.1951
14.3644
13.1434
14.6773
16.085
15.9419
15.3258
12.074
8.6327
8.0379
12.1311
15.7218
15.8294
15.1573
15.501
17.6806
20.8878
24.7317
25.8799
26.6657
25.9072
26.0387
25.536
22.8735
18.3675
16.3982
18.1405
22.8194
23.1705
19.5893
15.4274
15.1005
15.6009
15.7511
15.6634
15.1046
13.1158
12.5599
11.7442
10.343
9.258
13.7475
17.0956
17.9941
22.0284
23.096
18.5484
16.1561
17.2313
17.1719
18.7169
21.778
28.1889
33.607
35.2933
33.1686
32.379
30.7074
29.7038
33.2431
31.1635
26.5502
26.1097
27.2413
28.8794
27.6394
26.4838
24.6118
20.9217
16.6592
14.8609
13.1046
12.4491
12.0851
11.957
10.717
6.1382
3.9856
5.4462
5.0406
5.8439
6.9709
11.1186
15.3606
17.055
17.2562
16.3353
16.0152
18.1379
20.431
21.5239
22.1412
22.2904
23.2854
24.5539
26.3845
29.0477
28.9209
28.908
29.9604
29.6038
28.2204
29.105
27.2029
26.3102
27.6
26.8665
23.781
20.8305
20.4605
22.8533
26.6001
27.78
26.1149
29.8716
34.2132
33.741
35.0729
37.0254
35.0712
33.1166
30.8216
28.0183
27.9224
28.7129
29.7623
28.6801
28.8535
27.0654
26.777
28.8151
28.8843
28.2812
29.226
31.2082
31.4526
31.3553
30.8112
29.3053
28.7918
28.84
29.785
29.9757
29.5853
29.3808
27.8682
28.0094
26.6743
24.8271
25.8507
27.4436
26.6287
26.402
26.3565
27.0773
29.5867
28.7695
28.476
29.4082
25.4767
22.5803
25.2932
26.349
25.8853
24.475
21.0415
18.6049
19.326
20.3534
20.1326
21.436
21.6363
19.0373
20.3076
19.0404
14.8718
13.6584
14.3613
13.7346
14.8741
15.7283
14.6348
12.6194
12.5406
13.2185
14.0219
17.4889
17.4883
19.5005
23.8583
24.4094
22.2084
19.0742
16.2662
16.1857
15.8244
17.7233
19.1979
18.1365
15.5046
17.3582
24.267
29.2954
30.3981
29.3503
29.0189
27.7325
27.5985
26.0689
25.6282
24.3477
24.8425
27.4324
29.3551
28.947
28.6376
28.4494
29.2005
26.3933
23.2445
24.1203
31.417
36.2715
33.6367
34.2153
37.336
37.8916
36.6539
35.8821
32.3931
31.4312
31.6578
30.5788
29.8102
30.9687
32.4607
33.1329
34.5928
35.5747
35.3599
34.1296
33.8383
33.5188
32.4511
31.5447
31.9385
31.0668
30.7382
30.3526
29.3912
29.3512
30.0839
31.5018
33.2817
32.4123
32.167
30.2333
28.4484
28.5115
25.9395
24.0547
22.9559
22.3243
23.5139
22.4601
21.6303
22.0755
22.6561
25.6514
26.9226
25.5355
22.4472
21.5812
22.0163
22.8093
21.2484
19.9097
19.7484
21.3175
22.592
21.6669
21.4053
21.3528
21.2884
21.4728
20.3357
20.5858
22.9383
26.1436
25.5351
23.6911
25.5962
27.4702
30.8485
31.0841
29.0443
26.4783
24.6991
25.1527
26.6814
25.9751
27.3569
28.2141
29.2253
31.268
31.9251
32.0231
32.1147
31.9315
33.9776
34.0023
32.9898
31.1177
30.1327
29.8748
26.749
23.6265
21.1223
20.3268
19.254
22.0507
26.1364
24.8776
22.1872
22.0494
21.6862
20.6595
20.2052
18.5679
16.6269
16.7915
15.9294
18.4633
19.3866
17.1058
16.189
17.0295
18.6605
19.6197
19.3412
19.0894
19.9306
20.4006
20.7821
19.5382
17.1451
14.4188
18.6615
19.0315
16.92
17.4938
19.8945
24.9866
27.3426
27.9891
28.8619
27.5975
26.4244
26.8409
25.1577
22.8006
23.1668
24.5822
25.9001
26.8362
27.0336
26.8485
24.0894
22.0279
21.4008
19.702
18.9477
17.5581
19.3359
19.0014
20.6074
23.2694
25.826
28.2522
28.3956
27.8589
29.3626
30.3982
29.406
25.9207
26.7677
28.7289
29.1819
27.6032
24.7204
25.6583
26.1316
23.2566
22.6321
20.3288
18.4567
21.8997
24.8099
-6.8185
-6.8378
-6.5772
-6.1747
-5.089
-4.379
-1.3395
-0.2592
-1.1496
-3.7917
-5.6283
-8.3886
-8.5181
-8.5715
-9.6944
-11.5604
-11.5313
-11.0119
-8.6679
-6.6495
-4.2375
-4.0642
-4.385
0.6948
8.2971
11.2728
12.6737
12.3638
12.6295
14.2352
15.0572
13.8997
15.3671
16.5371
16.3692
19.5008
18.6989
18.2394
17.9991
14.7431
10.4333
8.64
9.2141
13.2077
17.455
20.1461
19.8099
19.0717
18.7048
16.5945
13.2125
13.0637
11.4113
13.0093
12.7569
10.0648
7.5903
9.8341
12.4668
13.1055
14.1035
16.3358
14.4342
11.2622
9.3986
8.798
6.5908
-0.0488
-5.451
-5.2289
-8.4612
-8.2448
-7.304
-5.3196
-2.0387
-4.8253
-8.2274
-7.2038
-6.1003
-5.4885
-5.5674
-3.7273
-2.0486
-0.112
-0.4257
-1.1181
2.7694
2.1814
0.6638
3.8288
3.9405
2.7868
2.1772
4.2532
7.4865
8.7259
7.5861
8.6905
9.8836
8.5879
10.2126
12.6686
15.7374
19.1434
19.4658
19.793
19.9988
21.7979
22.9563
19.4361
15.0313
12.8724
13.0967
15.9244
18.0364
18.296
17.205
16.5348
16.4019
19.8542
21.3222
19.9315
20.3882
22.104
22.3437
19.0916
18.653
19.075
18.5021
18.4018
20.0885
21.2327
22.7191
21.8843
18.8015
16.8802
17.5637
18.1967
16.4534
15.0818
14.8731
17.1122
18.1243
16.174
13.3798
6.5723
2.7995
5.1747
4.4941
4.5662
3.4931
2.552
6.9767
9.673
6.8449
5.2714
3.8383
0.3827
-1.0218
-1.3872
-4.3883
-5.5784
-5.9062
-4.4754
-3.8555
-7.7548
-9.3156
-5.6547
-2.8835
-1.6349
-1.1432
0.4366
1.6312
-0.7756
-3.5734
